325
323
320
319
317
316
315
315
314
314
314
314
315
315
316
316
316
317
317
318
318
319
319
320
320
320
321
321
321
321
322
322
323
323
323
323
324
324
324
324
324
325
325
325
325
325
325
325
326
327
327
327
327
328
328
329
331
333
335
335
335
335
335
334
334
333
333
334
333
331
330
329
328
327
327
327
327
327
327
327
327
327
327
327
327
329
333
338
349
364
384
403
414
410
391
369
344
326
318
315
314
316
318
321
324
326
326
327
327
328
328
329
329
330
330
331
332
333
333
334
335
335
336
337
338
339
339
340
341
342
343
344
345
346
347
348
350
351
352
353
355
356
357
359
360
361
361
362
362
362
362
361
359
358
356
353
350
346
342
339
335
332
329
327
324
323
321
320
320
319
319
319
319
319
319
319
320
320
320
321
321
322
322
322
323
323
323
324
324
325
325
325
326
326
326
326
326
327
327
327
328
328
328
328
328
328
328
328
328
328
328
329
329
330
330
330
330
331
331
332
333
335
337
339
339
339
339
338
337
337
337
337
336
335
334
333
331
331
330
330
330
330
330
330
330
330
330
330
330
330
332
335
340
351
366
385
405
417
415
398
377
352
333
324
319
318
318
321
324
326
328
329
329
329
330
330
331
331
332
332
333
334
335
336
336
337
337
338
339
340
341
341
342
343
344
345
347
348
348
350
351
352
354
355
356
358
359
360
362
363
364
365
366
366
365
365
364
363
362
359
357
354
350
346
343
339
336
333
331
329
327
325
325
324
324
323
323
323
323
323
323
324
324
325
325
326
326
327
327
328
328
328
328
329
329
330
330
330
331
331
331
332
332
332
332
333
333
333
333
333
333
333
333
333
334
334
334
334
334
334
335
334
334
335
335
335
336
336
337
337
337
337
338
339
339
341
343
345
346
346
346
345
345
344
344
343
343
344
342
341
340
338
338
337
336
336
336
336
336
336
336
336
336
336
336
337
341
345
353
367
386
407
423
424
411
389
364
342
331
325
323
323
325
328
331
332
333
334
334
335
335
335
336
336
337
338
338
339
340
341
341
342
342
343
343
344
345
345
347
348
348
349
350
351
352
353
355
355
356
358
359
360
362
363
364
365
366
366
367
367
366
365
365
363
361
358
355
352
348
345
341
338
335
332
330
328
326
324
323
323
322
322
321
321
322
322
322
322
323
323
324
324
324
325
325
325
325
325
326
326
326
326
326
327
327
327
327
327
327
328
328
328
328
328
328
328
328
328
328
328
328
328
328
328
328
328
329
329
329
329
329
329
329
329
329
329
330
330
330
330
331
331
331
332
332
333
335
337
339
340
339
339
338
338
337
337
337
337
337
335
333
333
331
331
330
330
330
330
330
329
330
329
330
329
329
329
331
335
340
351
367
387
407
418
412
393
369
343
326
319
315
314
316
319
323
325
327
328
328
329
330
330
330
331
332
332
332
333
334
334
335
336
337
337
338
339
339
341
341
341
342
343
344
345
347
348
349
350
352
352
353
355
356
357
358
359
361
362
363
363
363
363
362
361
359
357
354
351
347
343
339
336
332
329
326
324
322
321
320
319
318
318
318
318
319
319
319
319
319
320
320
320
321
321
322
322
322
323
323
323
323
324
324
324
325
325
325
325
325
325
326
326
326
326
326
326
326
326
326
326
326
327
327
327
327
327
327
327
327
327
328
328
328
328
328
328
328
328
329
329
329
330
330
330
331
332
332
333
335
337
338
338
339
338
337
337
336
336
336
336
335
334
332
331
331
330
329
329
329
329
329
329
329
329
329
329
329
329
331
335
340
352
369
389
408
415
406
386
363
339
325
317
315
315
317
320
323
325
326
327
328
328
329
329
330
330
331
331
332
332
333
334
334
335
335
336
337
338
339
339
340
341
342
343
344
345
346
347
348
349
350
352
353
355
356
357
358
359
360
361
362
362
362
361
360
359
357
355
352
349
345
341
338
334
331
328
326
324
322
321
320
319
318
318
318
318
318
318
319
319
319
319
320
320
320
321
321
322
323
323
323
324
324
324
325
325
325
326
326
326
326
327
327
327
327
328
328
328
328
328
328
328
328
328
328
328
329
329
329
329
329
329
330
330
330
330
330
330
330
331
331
331
331
332
332
332
332
333
333
333
333
333
334
334
334
334
335
336
337
339
341
342
342
342
342
341
341
341
341
340
340
340
339
337
336
335
335
334
333
333
333
334
333
333
334
334
333
333
333
335
338
345
357
374
395
413
421
414
394
372
347
332
325
321
321
322
325
328
330
331
331
331
332
333
334
334
334
335
335
336
336
337
338
338
339
340
340
341
342
342
343
344
345
346
347
348
349
350
350
352
353
354
356
357
358
360
361
362
364
365
366
366
367
367
366
365
364
362
360
358
355
352
348
344
341
337
334
331
329
327
326
325
324
323
323
323
322
322
322
322
322
323
323
324
324
325
325
325
326
326
326
327
327
327
328
328
329
329
329
329
330
330
330
330
330
330
330
331
331
331
331
331
331
331
332
332
332
332
332
332
332
332
332
332
332
333
333
333
333
333
333
333
333
333
334
334
334
334
334
334
334
334
335
335
335
335
335
335
335
336
336
336
336
336
336
336
337
337
337
337
337
338
338
340
342
344
345
345
345
345
344
343
343
343
343
343
342
341
339
337
336
336
336
335
335
335
335
335
335
335
334
334
334
334
336
340
345
357
374
395
414
424
418
399
377
352
336
327
322
321
322
325
327
329
330
331
331
332
332
332
333
333
334
334
335
336
336
337
337
338
338
339
340
340
341
342
342
343
343
344
346
347
348
349
350
351
353
354
355
356
357
358
360
361
362
363
363
363
364
363
363
362
361
359
357
354
350
347
344
340
336
333
330
328
326
324
323
321
321
320
320
320
320
320
320
320
320
321
321
322
322
322
322
323
323
324
324
324
324
325
325
326
326
326
327
327
327
327
327
328
328
328
328
329
328
328
328
329
329
329
329
329
329
330
330
330
330
330
330
330
330
330
330
330
331
331
331
331
331
332
332
332
332
332
332
332
333
333
333
333
333
334
333
334
334
334
334
334
335
335
335
335
335
335
336
336
336
336
336
337
338
340
342
343
344
344
344
344
343
342
342
342
341
342
341
339
338
337
336
336
335
335
335
335
335
335
334
334
334
334
334
336
339
343
353
368
387
407
420
417
400
378
353
334
325
320
318
320
322
325
328
330
331
332
332
333
333
334
334
334
335
336
336
337
337
338
338
339
340
340
341
342
342
343
344
345
346
347
347
348
349
351
351
353
354
356
358
359
360
361
362
363
363
364
364
364
364
363
362
360
358
355
352
349
345
342
338
335
332
329
327
325
323
322
321
320
320
320
320
320
320
321
321
321
321
322
322
323
323
323
324
324
325
325
326
326
326
327
326
327
327
327
328
328
328
328
328
328
328
328
328
329
329
329
329
329
329
329
329
330
330
330
330
330
330
330
330
331
331
331
331
331
331
331
331
332
332
332
332
333
333
333
334
333
334
334
334
333
334
334
334
334
335
335
335
336
335
336
336
337
339
340
342
343
343
343
343
342
341
341
341
341
341
341
339
337
336
335
335
334
334
334
334
333
333
333
333
333
333
333
335
339
344
354
370
390
409
421
418
402
381
357
338
328
323
322
322
324
327
329
330
331
331
331
331
332
332
333
333
334
334
335
336
336
337
337
338
339
340
340
341
342
343
343
344
345
346
347
347
348
350
351
352
353
354
355
357
358
359
360
361
362
363
364
364
364
363
363
361
360
358
355
352
349
345
342
339
336
332
330
328
326
324
323
322
322
321
321
321
321
321
322
322
322
322
323
324
324
324
324
325
325
325
326
326
326
326
327
327
327
328
328
328
328
328
328
329
329
329
329
329
330
330
330
330
330
330
330
330
330
331
331
331
331
331
331
332
332
332
332
332
332
332
332
332
332
333
333
333
333
333
333
334
334
334
334
334
334
335
335
336
336
336
337
337
339
341
342
344
344
344
343
343
342
342
342
342
341
341
339
338
336
335
335
335
334
334
334
334
334
333
333
333
333
333
335
338
344
354
370
390
409
421
420
404
383
358
338
329
324
322
322
324
327
329
330
330
331
331
332
332
333
334
334
335
335
336
336
337
337
338
338
339
340
341
341
342
343
344
344
345
347
348
349
351
352
353
354
355
356
358
359
360
362
363
364
365
365
365
365
366
366
365
363
362
360
357
354
350
346
343
340
337
333
331
329
327
325
324
323
322
321
321
321
321
321
321
321
322
322
322
323
323
323
323
324
325
325
326
326
326
326
327
327
327
327
327
328
328
328
328
328
328
328
328
329
329
329
329
329
330
329
329
330
330
330
330
330
330
330
330
330
330
331
330
331
331
332
332
333
333
333
334
334
335
336
339
340
342
342
341
341
341
340
340
340
339
339
338
336
335
334
333
333
333
332
332
332
332
332
332
332
332
332
332
335
338
344
355
372
391
409
416
408
387
364
339
326
319
316
316
319
322
326
329
330
331
331
332
333
334
334
334
335
335
336
337
337
338
338
339
340
340
341
341
342
343
344
345
346
347
348
349
349
350
352
353
353
355
357
358
359
360
362
363
364
364
364
365
365
364
364
363
361
359
357
354
350
346
343
339
336
333
331
328
326
325
323
322
322
321
321
321
321
321
321
322
322
322
323
323
324
324
325
325
325
326
326
326
326
326
327
327
328
328
328
328
328
328
328
328
329
329
329
329
329
329
329
329
329
330
330
330
330
330
330
330
331
331
331
330
331
331
332
332
332
333
333
334
334
336
338
340
341
341
341
340
340
340
339
339
339
339
338
336
334
333
333
332
332
332
332
331
331
331
331
331
331
331
331
334
338
344
356
372
392
410
418
411
391
369
344
330
322
319
319
321
324
327
328
329
329
330
330
331
331
332
333
334
334
334
335
336
336
337
337
338
339
340
340
341
342
343
344
345
345
346
347
349
350
351
352
353
354
356
357
358
360
361
362
363
363
364
364
364
364
363
362
361
359
356
353
349
345
342
338
335
332
329
327
325
324
323
322
321
320
320
320
320
320
321
321
322
322
322
322
322
323
323
324
324
325
325
325
326
326
326
327
327
327
327
327
328
328
328
328
328
328
328
328
329
329
329
329
329
329
329
329
329
329
330
330
330
330
331
331
331
332
332
333
333
335
337
339
341
342
341
341
340
339
339
339
339
339
339
336
335
334
333
332
332
331
331
331
332
332
332
331
331
330
331
332
335
340
350
363
382
403
418
419
405
383
358
336
326
320
318
318
321
324
327
329
330
330
331
331
331
332
332
332
333
333
334
335
336
337
337
338
339
339
340
340
342
342
343
344
345
346
347
348
349
350
351
352
354
355
356
358
359
360
360
361
362
363
363
363
363
363
362
360
358
356
353
350
346
342
338
335
332
329
326
324
322
321
320
319
319
318
318
318
318
318
319
319
320
320
320
321
321
321
322
322
322
322
323
323
323
323
323
323
323
324
324
324
324
324
325
325
325
325
325
325
325
325
325
325
325
325
325
326
326
326
326
326
326
326
327
327
327
328
328
329
330
331
333
335
337
338
337
336
336
336
335
335
335
335
334
332
331
330
329
328
328
328
327
327
327
327
327
327
327
327
327
328
331
336
343
356
374
395
413
418
409
388
363
338
325
318
316
316
318
321
324
326
327
329
329
330
330
331
332
332
333
334
334
335
336
336
337
338
338
339
339
340
341
342
343
344
345
346
347
348
349
350
352
353
355
356
357
359
360
361
362
363
364
365
365
366
365
365
364
363
361
359
356
353
349
346
342
338
335
332
329
327
326
325
324
323
322
322
321
321
321
322
322
323
323
324
324
325
325
326
327
327
327
327
328
328
328
329
329
329
330
330
330
330
330
331
331
330
331
330
331
331
331
331
331
331
331
332
331
332
332
332
333
333
332
333
333
334
334
334
335
335
336
336
337
338
341
343
344
345
344
344
343
342
342
342
342
342
341
339
338
337
336
336
335
335
334
334
334
334
335
334
335
335
335
336
338
342
348
360
377
397
414
420
410
389
366
341
327
320
318
318
321
324
328
331
332
333
333
334
334
335
336
336
336
337
338
339
339
340
340
341
342
342
343
344
345
345
346
348
349
350
351
352
353
355
356
357
358
360
361
363
364
365
366
367
368
368
368
368
367
366
365
363
361
359
355
352
348
344
340
337
334
331
329
328
326
325
324
323
323
323
323
323
323
324
324
324
324
325
326
326
327
327
327
327
328
328
328
329
329
330
330
330
331
331
331
331
331
331
331
331
331
331
331
332
332
332
332
332
332
333
333
333
333
333
333
333
333
333
334
334
334
335
335
335
336
336
337
338
340
343
344
344
344
343
343
342
342
341
342
342
341
339
338
337
336
336
335
335
334
334
334
335
335
335
335
335
335
335
338
342
348
360
376
397
415
423
416
395
371
345
330
324
320
320
322
325
328
330
332
332
333
334
334
334
335
336
336
337
338
339
340
340
341
342
343
343
343
344
345
345
346
347
348
349
349
350
351
353
353
355
357
358
359
360
362
363
364
365
366
367
367
367
367
367
366
364
362
360
358
355
351
348
344
340
337
334
331
328
327
325
324
323
323
322
322
322
322
323
323
323
324
324
324
324
325
326
326
326
327
327
328
327
328
328
328
329
329
329
329
330
330
330
330
330
330
330
330
331
331
331
331
331
331
331
331
331
331
331
331
332
332
331
332
332
332
332
333
334
334
334
333
333
334
334
335
336
337
339
341
342
343
342
341
341
340
340
339
339
340
338
337
335
334
334
334
333
333
333
333
332
332
332
332
332
331
332
333
336
340
349
362
381
401
416
417
402
380
356
334
324
319
318
319
321
325
328
329
330
331
331
332
332
333
333
334
334
335
336
336
337
337
338
338
339
340
340
341
342
342
343
344
345
346
347
348
349
350
351
352
353
355
356
357
359
360
361
362
363
363
363
363
363
363
361
360
358
356
353
350
346
343
339
336
333
331
328
326
325
324
323
322
321
321
321
321
321
321
321
322
322
323
323
324
324
324
324
325
326
326
326
326
326
327
327
327
328
328
328
329
329
329
329
329
329
330
329
329
329
330
329
330
330
330
330
330
330
330
331
331
331
331
331
332
332
332
332
332
332
332
332
332
332
333
333
333
333
333
333
333
333
333
334
334
334
335
335
335
336
336
337
339
341
343
343
343
343
342
342
341
341
341
341
341
339
338
337
336
335
335
334
333
333
334
334
334
333
333
333
333
333
334
338
343
354
370
391
410
421
418
400
378
353
335
326
321
320
321
324
327
328
329
330
330
331
331
332
332
333
333
334
334
335
336
336
337
337
338
339
340
340
341
341
342
343
343
344
345
346
347
348
350
351
352
353
354
356
357
358
359
360
361
362
362
363
363
363
362
361
360
358
356
354
350
347
343
340
337
334
331
328
326
324
323
322
321
321
320
320
320
321
321
321
322
322
322
322
323
323
323
324
324
325
325
325
325
326
326
326
326
327
327
327
327
328
328
328
328
328
328
328
328
329
329
329
329
329
329
329
329
329
329
329
329
330
330
330
330
330
330
330
330
331
331
331
331
331
332
332
332
332
333
333
333
333
333
334
333
333
333
334
334
334
334
334
334
334
334
334
334
334
334
335
335
336
336
336
336
337
337
338
340
342
344
344
344
344
344
343
342
341
341
341
341
340
339
338
337
336
335
334
334
334
334
333
334
334
334
334
333
333
335
339
344
355
370
391
411
423
420
402
380
355
337
328
322
320
321
323
326
328
329
330
330
330
331
332
332
333
333
334
334
334
335
336
336
337
338
339
340
340
341
342
342
343
344
345
346
347
347
349
350
351
352
353
354
355
356
357
358
360
361
362
363
363
363
363
362
361
360
359
357
355
352
349
346
342
338
335
332
330
327
326
324
323
322
321
321
320
320
320
320
320
321
321
322
322
322
322
323
323
324
324
324
325
325
326
326
326
326
326
327
327
327
327
328
328
328
328
328
328
328
328
328
328
329
329
329
329
329
329
329
329
330
330
330
330
330
330
330
330
331
331
331
331
331
332
332
332
332
332
332
332
332
332
333
333
333
334
334
334
334
334
333
334
334
334
334
334
334
335
335
335
335
335
336
336
336
336
337
338
340
342
343
344
344
344
343
343
342
342
342
342
342
341
339
337
336
336
335
335
334
334
334
334
334
334
334
334
333
333
335
339
344
355
370
391
411
423
419
402
379
353
335
326
321
319
320
323
326
329
330
331
331
332
332
332
333
333
334
334
335
336
336
336
337
338
338
339
340
340
341
342
342
343
344
345
346
347
348
349
350
351
352
353
354
356
357
358
360
361
362
363
363
364
364
364
364
363
362
360
358
356
353
349
346
342
339
336
333
330
328
326
324
322
321
321
320
320
320
320
320
320
321
321
321
322
322
323
323
323
324
324
324
324
325
325
325
325
326
326
326
326
326
327
327
327
327
328
328
328
327
327
328
328
328
328
328
328
328
328
328
328
328
328
329
328
328
329
329
329
329
329
329
329
330
330
330
330
331
331
331
331
331
331
331
331
332
331
332
332
332
332
332
332
332
332
333
333
334
334
335
335
336
338
340
342
342
342
342
341
340
340
339
340
340
339
338
336
335
334
333
332
332
332
332
332
332
332
331
331
331
331
332
335
340
347
360
379
399
416
418
404
383
357
334
323
317
315
316
318
322
325
328
329
330
331
331
331
331
332
333
333
333
334
334
335
336
336
338
338
339
339
340
340
341
342
343
343
344
345
346
347
348
349
351
352
353
354
355
357
358
359
360
362
363
363
363
363
363
362
361
359
357
355
352
348
345
341
337
334
330
328
325
323
321
320
319
318
318
318
317
317
318
318
318
318
318
319
319
320
320
321
321
322
322
322
322
323
323
324
324
324
325
325
325
325
326
326
326
326
326
326
326
326
326
326
326
326
326
326
327
327
327
327
328
328
328
328
328
328
328
329
329
329
330
329
330
329
330
330
330
330
330
330
331
331
331
332
332
333
333
333
334
335
336
337
339
341
341
341
340
340
340
339
339
339
339
339
338
336
335
334
333
333
333
332
332
332
333
332
332
332
332
332
333
336
341
349
362
380
400
417
419
406
385
362
338
327
320
318
319
321
324
327
329
330
331
331
332
332
332
333
334
334
335
336
336
337
337
338
339
339
340
341
341
342
343
344
345
346
347
348
349
350
351
352
353
354
356
357
358
360
361
363
364
365
366
366
367
367
366
365
364
363
361
358
355
352
349
345
342
338
335
333
330
328
327
326
325
324
323
323
322
323
323
324
324
324
324
324
325
325
326
327
327
328
328
329
329
329
330
330
331
331
331
332
332
332
332
332
333
333
333
333
333
333
334
334
334
333
334
334
334
334
334
334
335
335
335
335
335
335
335
335
335
335
336
336
336
336
336
336
337
337
337
337
337
337
337
338
338
338
338
338
339
339
339
339
339
340
340
341
341
341
341
342
343
345
347
348
349
349
349
348
348
347
347
346
346
346
345
343
342
341
341
340
339
339
339
339
339
338
339
339
338
338
339
341
345
353
366
385
406
423
427
416
396
372
348
336
328
325
325
327
330
333
334
335
335
335
335
336
336
337
338
338
338
339
339
340
341
342
342
343
344
344
345
346
346
347
348
348
349
350
351
352
353
355
355
357
358
359
360
361
363
365
365
366
367
368
368
368
368
367
366
365
363
361
358
355
352
348
345
341
338
335
333
331
329
327
326
325
324
324
323
323
323
323
324
324
325
325
325
326
326
326
327
327
328
328
328
328
328
328
329
329
329
330
330
330
330
331
331
331
331
331
331
331
331
331
331
332
332
332
332
332
332
332
332
331
332
332
332
332
332
333
333
333
333
333
333
333
333
334
334
334
334
334
334
334
334
334
335
335
335
336
336
337
339
341
343
344
344
343
343
342
342
342
341
341
341
340
338
336
335
335
334
333
333
333
333
333
333
333
333
333
332
332
334
338
343
353
369
390
409
422
419
402
380
354
336
326
321
319
320
323
326
328
329
330
330
330
331
332
332
332
333
333
334
334
335
335
336
337
337
338
339
339
340
341
342
342
343
344
345
346
347
348
350
351
352
353
355
356
358
359
360
361
362
363
364
364
364
364
364
363
361
359
357
354
351
347
343
340
336
333
330
327
325
323
322
321
320
319
318
318
318
318
318
319
319
319
319
320
320
320
321
321
322
322
322
323
323
324
324
325
325
325
325
326
326
327
327
327
327
327
327
327
327
327
328
328
328
328
328
328
328
328
328
328
328
328
329
329
329
329
329
329
330
330
330
330
330
330
330
331
331
331
331
331
332
332
332
333
333
333
333
334
335
336
339
340
342
342
342
341
340
340
340
340
339
339
338
336
334
333
333
332
331
331
331
331
331
331
331
331
332
331
331
333
336
341
351
366
387
407
421
419
402
379
354
334
325
319
318
318
321
324
327
329
329
330
330
330
331
331
332
333
333
334
335
335
336
336
337
337
338
339
340
340
341
342
342
343
345
346
347
348
349
350
351
352
353
355
356
358
359
360
361
362
363
364
365
366
365
365
364
363
360
358
356
353
349
345
342
338
334
331
328
326
324
323
321
320
320
320
319
320
320
320
320
320
320
320
321
322
322
322
323
323
324
324
324
325
325
325
325
326
326
327
327
327
327
327
327
327
327
328
328
328
328
328
328
328
328
329
329
329
329
329
329
329
329
330
330
330
330
330
330
331
331
331
331
331
332
332
332
332
333
333
333
333
334
334
336
337
339
341
342
342
342
341
341
340
340
340
340
340
339
337
335
334
334
333
333
332
333
333
332
333
332
333
333
332
333
334
338
343
353
369
389
409
420
414
395
372
346
329
320
316
316
317
320
324
328
330
331
331
332
332
332
333
333
334
334
335
335
336
337
337
338
339
340
340
341
342
342
343
344
345
346
347
347
348
349
350
352
353
354
356
357
358
360
361
362
364
365
366
366
366
366
365
363
362
360
358
355
351
347
343
339
336
333
330
327
325
323
322
321
320
320
319
319
319
319
319
320
320
320
320
320
321
322
323
323
323
324
325
325
325
325
326
326
326
327
327
327
327
328
328
328
328
327
328
328
329
329
329
329
329
329
329
329
329
330
330
330
330
330
330
330
331
330
331
331
332
332
332
332
332
332
332
332
332
332
333
333
333
333
334
334
334
335
335
336
339
340
342
342
342
342
341
341
341
341
341
340
340
338
336
335
335
335
334
334
333
333
333
333
333
333
334
333
332
333
335
339
345
357
374
395
414
422
415
395
372
347
332
324
320
320
321
323
326
329
330
331
331
332
333
333
333
334
334
335
336
336
337
338
338
339
340
340
341
341
343
344
344
345
346
346
347
348
349
350
351
352
354
355
357
358
359
361
362
363
364
365
366
367
367
367
366
365
363
361
359
356
353
349
345
342
338
335
332
329
327
325
324
323
322
322
321
321
321
321
321
321
322
322
323
323
324
324
324
325
325
325
326
326
326
327
327
327
328
328
328
328
329
329
329
329
329
329
329
330
330
330
329
330
330
330
330
330
330
331
330
330
330
330
331
331
331
331
331
331
332
332
332
332
332
332
332
333
333
333
333
333
333
334
334
334
334
335
335
335
336
337
338
340
342
344
344
344
343
342
342
342
341
341
341
340
339
337
335
335
334
334
333
333
333
333
333
333
334
333
333
333
334
336
341
349
362
381
403
420
423
411
390
366
343
330
323
320
320
322
325
327
329
330
330
331
331
332
332
333
333
334
334
335
336
336
337
338
338
339
340
340
341
341
343
343
344
345
345
347
348
349
350
351
352
353
355
356
357
359
360
361
362
363
364
365
365
365
365
364
363
362
359
357
354
350
347
343
339
336
333
330
328
325
324
323
322
321
321
320
320
320
320
320
320
321
321
321
322
322
323
324
324
324
324
324
325
325
325
325
326
326
326
327
327
327
327
328
328
328
328
328
328
328
328
328
328
328
329
329
329
329
329
329
329
329
329
329
329
330
330
330
330
331
331
331
331
331
331
331
332
332
332
332
332
333
333
333
332
333
333
333
333
333
334
334
334
335
335
335
336
337
338
340
342
342
342
342
342
341
341
340
340
340
340
339
337
336
335
334
334
333
332
332
332
332
332
332
332
332
331
331
333
336
341
351
366
386
407
421
420
404
382
357
336
327
320
319
319
321
324
326
328
329
329
330
330
331
331
331
332
332
333
333
334
335
335
336
336
337
338
338
339
340
341
342
343
343
344
345
346
347
349
349
351
352
354
355
356
358
359
361
362
362
363
363
364
364
363
362
361
360
358
355
352
349
345
341
338
334
331
329
326
324
323
322
320
320
319
319
318
319
319
319
320
320
320
321
321
321
321
322
322
323
323
323
323
323
324
324
325
325
325
326
326
326
326
327
327
327
327
327
327
327
327
328
327
327
327
327
328
328
328
328
329
328
328
329
329
329
329
329
329
329
329
329
329
330
330
330
330
331
331
330
331
331
331
331
331
332
331
332
332
332
333
333
333
333
334
335
336
338
340
341
342
342
342
341
340
340
340
339
339
339
338
336
335
334
333
333
332
332
332
333
333
332
333
333
332
332
333
334
338
344
356
373
394
413
420
411
391
367
342
328
320
317
316
318
322
326
328
330
331
331
331
332
332
333
333
334
335
336
336
337
337
338
339
339
340
341
341
342
343
344
345
346
347
348
349
350
351
352
353
354
355
357
358
359
361
362
363
364
365
366
367
367
367
366
365
363
361
359
356
353
349
346
342
339
336
332
330
328
326
324
323
322
321
321
320
320
320
320
321
321
322
322
323
324
324
324
325
326
326
326
326
326
326
327
327
328
328
328
328
328
329
329
329
330
330
330
330
330
330
330
330
331
331
331
331
331
331
331
331
331
332
332
332
333
333
333
332
333
333
333
333
333
334
334
334
334
335
335
335
335
335
336
336
336
336
336
337
337
337
338
338
338
339
339
341
342
344
345
346
346
345
344
344
343
343
343
343
343
341
340
338
337
337
336
336
336
336
336
336
336
336
336
335
335
336
338
343
351
365
384
405
422
425
412
391
367
343
332
324
322
321
323
326
329
331
332
332
333
333
334
334
335
335
336
337
337
338
338
339
340
340
341
341
342
343
343
344
345
346
347
347
349
350
351
352
354
355
356
357
358
359
361
362
364
365
366
367
367
368
368
367
366
365
364
363
360
357
354
350
347
343
339
336
333
331
329
327
326
324
323
323
322
322
322
322
323
323
324
324
324
324
324
325
325
325
326
326
327
327
327
328
328
328
329
329
329
329
329
329
330
330
330
330
330
331
331
331
331
331
331
331
332
332
332
332
332
332
332
332
333
333
333
333
333
333
333
333
334
334
334
335
335
335
335
335
335
335
336
336
335
336
336
336
336
336
336
336
336
336
337
338
338
338
338
339
339
341
343
345
345
345
345
344
344
343
343
343
343
343
342
340
339
338
337
336
336
335
335
335
335
335
335
335
335
334
335
337
341
348
360
377
398
417
426
419
399
376
350
335
327
322
321
322
325
328
330
331
332
332
332
333
333
334
334
335
336
336
337
337
338
338
339
340
341
341
342
342
343
344
344
345
346
347
348
349
350
351
352
354
355
356
358
359
360
362
363
364
365
365
366
366
366
366
365
364
362
360
357
354
350
347
343
340
337
334
331
329
326
325
323
322
321
321
320
320
320
321
321
322
322
322
322
323
323
323
324
324
324
325
325
325
326
326
326
326
327
327
327
327
328
328
328
329
329
329
329
329
329
329
329
329
329
329
329
329
329
329
330
330
330
330
331
331
330
331
331
331
331
331
331
331
331
332
332
332
332
332
332
332
333
333
333
333
333
333
333
334
334
334
334
334
335
335
335
335
336
337
339
341
343
344
344
344
343
342
342
342
341
341
341
341
339
337
336
335
335
334
334
334
334
334
334
334
333
333
333
333
335
339
344
355
372
392
412
423
419
401
378
353
335
326
321
320
320
323
326
329
330
331
331
331
332
332
332
333
334
334
334
335
336
337
337
338
339
339
340
341
341
342
343
343
344
345
346
347
348
349
350
352
353
354
355
356
357
359
360
361
362
363
364
365
365
365
364
364
363
361
359
357
354
351
347
344
340
337
333
331
328
326
324
322
321
320
320
320
320
320
320
320
321
321
322
322
322
322
323
323
323
324
324
324
325
325
325
326
326
326
326
327
327
327
328
328
328
328
327
328
328
328
328
328
328
328
328
328
329
329
329
329
329
330
330
330
330
330
330
330
331
331
331
331
331
331
331
332
332
332
332
332
332
332
332
332
333
333
333
334
334
335
335
335
335
336
337
339
341
342
343
343
342
342
341
341
340
340
340
340
338
337
336
335
334
333
333
333
333
333
333
333
333
333
332
333
334
336
340
348
361
380
400
417
421
408
386
361
338
326
320
317
317
320
323
326
329
330
330
331
332
332
332
333
334
334
335
335
336
337
337
338
339
339
340
340
341
342
343
343
345
346
347
347
348
349
350
351
352
354
355
356
358
359
360
361
362
363
364
365
365
366
365
365
364
362
361
358
355
352
348
344
341
337
334
331
328
326
324
322
321
320
320
320
319
319
320
320
320
320
321
321
321
322
322
323
323
323
323
324
325
325
325
325
326
326
326
326
326
326
326
326
327
327
327
327
327
327
327
327
327
327
328
328
328
328
328
328
328
328
329
329
329
329
329
329
330
330
329
330
330
330
330
330
330
331
331
331
331
331
332
332
333
333
333
334
334
335
337
339
341
342
342
341
341
340
340
339
339
339
339
337
335
334
333
332
332
331
331
331
331
331
331
331
331
331
331
331
334
337
344
355
372
393
412
420
414
394
371
345
330
322
317
317
318
321
324
327
328
329
329
329
330
330
331
332
332
332
333
333
334
335
335
336
337
338
339
339
340
340
341
341
342
344
345
346
347
348
349
350
351
352
354
355
357
358
360
361
362
363
363
363
363
363
363
362
361
359
357
354
351
347
343
340
336
333
330
328
325
323
322
320
320
319
319
319
319
319
319
319
320
320
321
321
321
321
321
322
322
322
323
323
324
324
325
325
325
326
326
326
326
326
326
327
327
327
327
327
327
327
327
328
328
328
328
328
328
328
328
328
329
329
329
329
329
329
330
330
330
330
330
330
330
331
331
331
332
332
332
333
333
333
334
334
336
337
339
341
342
342
342
341
340
340
340
340
340
340
339
337
335
334
334
333
333
332
333
332
333
333
333
332
332
332
333
335
339
345
356
373
394
413
423
418
398
376
350
333
325
320
319
320
323
326
328
330
330
331
331
332
332
332
333
334
335
335
335
337
337
338
339
340
340
341
342
343
343
344
345
346
347
348
349
351
352
353
354
356
357
359
360
362
363
364
365
366
366
367
367
367
367
366
365
363
361
357
354
350
346
343
339
336
333
330
327
326
324
323
322
321
321
321
321
321
321
321
322
322
323
323
324
324
324
324
325
325
325
326
326
327
327
328
328
328
328
329
329
330
330
330
330
330
330
330
330
330
330
331
331
331
331
331
331
331
331
331
332
332
332
332
332
333
333
333
333
333
333
333
334
334
334
335
336
336
337
337
338
340
342
343
344
345
344
344
343
342
342
341
341
341
340
338
337
336
336
335
335
335
335
335
335
335
335
335
334
334
335
337
340
345
355
370
389
409
420
415
396
374
348
331
322
319
318
320
323
327
330
332
333
333
334
335
335
336
336
337
337
338
339
339
340
340
341
342
342
343
343
344
345
346
346
348
349
349
350
351
353
353
354
355
357
358
360
361
362
364
365
366
367
367
367
367
368
367
366
365
363
361
358
354
351
347
344
340
336
333
331
329
327
326
325
324
323
323
322
322
322
322
323
323
323
324
324
324
324
325
325
326
327
327
327
327
328
328
328
329
329
329
329
330
329
330
330
330
330
330
330
331
330
330
331
331
331
331
331
331
331
331
331
331
332
331
332
332
332
332
332
332
333
333
333
333
334
334
334
334
335
336
336
338
340
342
343
343
343
342
342
341
341
340
340
340
339
338
336
335
335
334
334
333
333
333
333
333
333
333
333
333
333
334
338
342
351
366
385
405
420
420
405
385
360
339
328
322
320
321
323
326
328
330
331
331
331
332
332
333
333
334
334
335
335
336
337
337
338
338
339
340
340
341
341
342
343
344
345
346
347
348
349
350
352
353
354
355
356
358
359
361
362
363
364
364
365
365
365
364
363
362
361
359
356
353
350
346
342
338
335
332
329
327
325
324
322
322
321
320
320
320
320
320
321
321
321
322
322
322
322
323
323
323
324
324
325
325
325
325
326
326
327
327
328
328
328
328
328
329
329
329
329
329
330
329
329
330
330
330
330
330
330
330
330
331
331
331
331
331
331
331
331
331
331
332
332
332
332
332
332
333
332
333
333
333
333
334
334
334
335
335
336
336
338
340
342
343
344
343
343
342
341
341
341
341
341
341
339
337
336
335
335
334
334
333
334
334
334
334
334
333
333
332
333
336
340
346
359
377
398
417
424
415
395
372
347
332
325
321
320
322
324
327
329
330
330
331
331
332
332
332
333
333
334
334
335
335
336
337
338
338
339
340
340
341
342
343
343
344
345
346
347
348
349
350
351
353
354
356
357
358
360
361
362
362
363
364
364
364
364
364
363
362
360
357
354
351
347
344
340
337
334
331
329
327
324
323
322
321
321
320
320
320
320
320
320
321
321
321
321
322
322
322
323
324
324
324
325
325
325
326
326
326
327
327
327
327
328
328
328
328
329
329
329
329
329
329
329
329
329
329
329
329
330
330
329
330
330
330
330
331
331
330
330
331
331
331
331
331
332
332
332
332
333
333
333
333
333
333
333
333
334
334
334
334
335
336
339
341
342
343
343
342
342
342
341
340
340
340
340
339
337
336
335
334
334
333
333
333
333
333
333
333
333
333
332
332
334
337
342
351
365
385
406
420
419
402
380
354
334
324
319
317
318
321
324
328
330
331
331
331
332
332
333
334
334
335
335
336
336
337
338
339
339
340
340
341
342
343
343
344
345
346
347
348
349
350
351
352
353
354
355
357
359
360
361
362
364
365
365
365
366
366
365
364
363
361
359
356
353
350
346
342
338
334
332
329
326
325
323
322
320
320
319
319
318
319
319
319
320
320
321
321
322
322
322
322
322
323
323
324
324
325
325
325
326
326
326
326
326
327
327
327
327
327
327
327
327
327
327
328
328
328
328
328
328
328
329
329
329
329
328
329
329
329
329
329
330
330
330
330
330
330
331
331
331
331
331
331
332
332
332
333
334
335
336
338
340
340
340
340
339
339
338
337
337
337
337
336
334
333
332
332
331
331
330
330
330
330
330
330
330
330
330
330
331
334
338
347
361
380
401
417
417
402
381
356
333
323
317
315
315
318
321
324
326
327
328
329
329
330
330
331
331
332
332
333
333
334
335
336
336
337
337
338
339
340
340
341
342
343
344
345
345
347
348
349
351
352
353
355
356
357
359
360
361
362
363
363
363
364
363
362
361
360
357
354
351
348
344
340
337
333
330
327
325
323
321
320
319
318
318
317
318
318
318
318
319
319
320
320
320
321
321
321
322
323
323
323
324
324
325
325
325
326
326
326
327
327
327
328
328
328
328
328
329
329
329
328
328
329
329
329
329
329
329
329
329
329
330
330
330
330
330
331
331
331
331
331
331
331
332
332
332
333
333
333
333
333
333
333
333
333
334
334
335
335
335
336
337
338
340
342
343
344
344
343
343
342
341
341
341
341
341
340
338
337
336
335
334
334
334
334
334
334
334
334
333
333
333
333
335
339
344
355
371
392
412
425
421
404
382
356
337
328
322
321
321
324
326
329
330
330
331
332
332
332
332
333
334
335
335
336
336
337
337
338
339
339
340
341
342
342
343
344
345
346
347
348
349
350
352
353
354
355
356
358
359
360
362
363
364
365
366
367
367
367
366
365
364
362
360
358
355
351
348
344
341
337
334
332
329
327
326
324
323
323
322
322
321
321
322
322
322
323
323
323
324
324
325
325
326
326
327
327
327
327
328
328
328
329
329
329
330
330
330
330
330
331
331
331
331
332
332
332
332
332
332
332
332
332
332
333
333
333
334
334
334
334
334
334
334
334
334
335
335
335
335
335
335
335
335
336
336
336
336
336
337
336
336
337
337
337
337
338
338
338
338
338
339
339
340
341
344
345
346
347
347
346
346
345
345
345
344
344
344
342
341
339
338
338
337
337
337
337
337
337
337
337
337
336
336
336
339
343
350
364
382
403
422
428
418
397
373
348
335
327
323
323
324
327
330
331
332
333
333
334
334
335
335
336
336
337
337
337
338
339
339
340
340
341
342
342
343
344
345
346
347
348
349
350
350
351
353
354
356
357
358
360
361
362
363
364
365
366
367
367
367
367
367
366
365
363
360
357
354
350
346
343
339
336
333
331
328
326
324
323
322
321
321
321
321
321
322
322
322
322
322
323
323
324
324
324
325
325
325
326
326
327
327
328
328
328
329
329
329
329
329
329
329
329
329
329
330
330
330
330
330
331
331
331
331
331
331
331
331
331
331
330
331
332
332
332
332
332
332
332
332
333
333
333
333
333
333
333
333
333
333
334
334
334
334
334
335
335
336
335
335
336
337
338
340
342
344
344
344
343
342
342
342
341
341
341
341
339
337
336
335
335
335
334
334
333
333
334
334
333
334
334
333
334
336
341
347
359
376
398
417
424
415
395
371
346
331
323
319
318
320
323
326
329
330
330
331
331
332
332
333
334
334
335
336
336
336
336
337
338
339
340
340
341
342
342
343
344
345
346
347
348
349
350
351
352
354
355
356
358
360
361
362
363
364
365
366
367
367
366
366
365
364
362
359
356
353
349
345
342
338
334
331
328
326
324
322
321
320
320
319
320
319
319
320
320
320
320
320
321
321
321
322
322
322
323
324
324
325
325
326
326
326
326
326
327
327
327
328
327
328
328
328
328
328
328
328
328
328
328
329
329
329
329
329
329
329
330
330
330
330
330
330
330
331
331
331
332
332
331
331
331
331
331
331
332
332
333
333
333
333
333
334
335
337
339
341
342
342
341
341
340
339
339
339
339
339
337
336
335
334
333
333
332
332
332
331
331
332
332
332
331
331
332
333
337
341
351
366
385
406
419
416
398
375
350
330
321
317
316
317
320
323
326
328
329
330
331
332
332
332
333
333
334
334
335
336
336
337
337
338
339
339
339
341
341
342
343
344
345
346
347
348
349
350
351
352
354
355
356
358
359
361
362
363
364
365
366
366
366
366
365
364
362
359
356
353
349
345
341
338
334
331
328
326
324
322
321
320
319
319
319
319
319
319
319
319
320
320
321
321
321
322
322
322
323
323
323
324
324
325
325
326
326
326
327
327
327
327
328
328
328
328
329
329
329
329
329
329
329
329
329
329
329
329
329
329
330
330
330
330
330
330
331
331
331
331
331
331
332
332
332
333
333
333
334
335
336
337
339
341
342
342
341
341
340
340
339
339
339
339
337
336
335
334
333
333
332
332
331
331
331
332
332
332
332
331
331
333
337
342
352
367
388
408
421
419
402
380
354
334
324
319
318
318
321
324
327
328
329
329
330
330
331
332
332
332
333
333
334
335
335
336
337
338
338
338
339
340
341
342
343
344
345
345
347
348
349
350
351
352
354
355
357
358
360
361
362
364
364
365
366
366
366
366
365
364
362
359
356
353
349
345
342
338
334
331
328
326
324
323
321
320
320
319
319
319
319
320
320
321
321
321
321
322
322
323
323
324
324
324
325
325
325
325
326
326
326
327
327
327
328
328
328
328
329
329
329
329
329
329
330
330
330
330
330
330
330
330
330
330
330
330
331
331
332
332
332
332
332
332
332
333
333
333
333
334
334
334
335
335
336
337
339
342
343
344
344
343
342
342
341
341
341
341
341
339
338
336
336
335
334
333
333
334
334
334
333
333
334
333
333
333
335
339
344
356
372
393
413
424
419
400
376
350
333
324
320
319
320
323
326
328
330
331
332
332
333
333
333
334
334
335
336
335
336
337
338
338
339
340
341
341
342
343
344
345
346
347
348
348
349
351
352
353
354
356
357
359
360
362
363
365
366
367
368
368
368
368
367
366
365
363
360
357
354
350
346
342
338
335
332
329
327
325
324
323
322
321
321
321
321
321
321
321
321
321
321
322
322
323
323
324
324
324
325
325
326
326
327
327
328
328
327
328
328
328
329
329
329
329
329
329
329
330
330
330
330
331
330
330
331
331
331
331
331
331
332
332
332
332
332
332
332
333
333
333
334
335
335
337
338
340
341
342
341
341
340
340
339
339
339
339
338
337
336
335
334
333
333
332
332
332
332
332
332
332
333
332
332
333
336
340
347
359
377
397
414
420
410
390
367
343
329
322
320
320
321
325
327
329
330
330
331
332
332
332
333
334
334
335
336
336
337
338
338
339
339
340
341
342
342
343
344
345
345
346
347
348
349
350
352
353
354
356
357
359
360
361
363
364
365
366
366
366
367
366
365
364
362
360
357
354
350
346
342
339
336
332
329
328
326
325
323
322
321
321
320
320
320
321
321
321
321
322
322
322
323
323
324
324
324
324
325
325
326
326
327
327
328
328
328
328
328
329
329
329
329
330
330
330
330
330
331
330
330
330
331
331
331
331
331
331
331
331
331
331
331
331
332
332
332
332
332
332
332
332
332
333
332
333
333
333
334
334
334
335
335
337
339
340
342
343
343
343
342
341
341
340
340
340
340
339
338
336
335
335
334
334
333
333
333
333
333
333
333
333
333
333
334
336
340
347
360
378
398
415
421
411
392
369
346
332
324
322
321
323
325
328
329
330
330
330
331
331
332
332
332
333
334
334
335
335
336
336
337
338
338
339
340
341
341
342
343
344
345
346
346
347
349
350
351
352
354
355
357
358
359
361
362
363
364
365
365
364
364
363
362
361
359
357
354
350
347
343
340
336
333
331
328
326
324
323
321
321
320
320
320
319
319
320
320
320
321
321
322
322
322
323
323
324
324
325
325
325
325
325
326
327
327
327
327
328
328
328
328
328
328
328
329
329
329
329
329
330
330
330
330
330
330
330
330
331
331
331
331
331
331
331
331
331
331
332
332
332
333
333
333
332
332
332
332
333
333
333
333
333
334
334
334
334
334
334
335
335
335
336
335
335
336
337
338
340
342
343
344
343
343
342
342
342
341
341
342
341
340
338
337
336
335
335
334
334
333
334
334
334
334
334
334
333
333
335
339
344
354
370
390
410
422
418
401
379
354
336
327
322
320
321
324
327
329
330
330
331
331
331
331
332
333
333
333
334
335
335
336
337
338
338
339
340
340
341
342
342
343
344
345
346
347
348
349
350
352
352
353
355
356
357
359
360
362
363
364
364
365
365
365
365
364
362
361
359
356
354
350
347
343
339
336
333
330
328
325
324
323
322
321
321
321
320
320
320
320
321
321
322
322
322
322
323
323
323
324
325
325
325
326
326
326
326
326
327
327
327
327
328
328
328
328
328
328
328
329
329
329
329
329
329
329
329
329
329
329
329
329
330
330
330
331
331
331
331
331
331
332
332
332
332
332
332
332
332
333
333
333
333
333
334
334
334
334
334
334
334
334
335
335
335
335
336
336
336
336
337
338
340
342
344
344
344
344
344
343
342
342
342
342
342
340
339
337
336
335
335
334
334
334
334
334
334
334
334
334
334
333
334
338
342
351
366
386
407
422
421
405
383
358
337
327
321
320
320
322
325
328
330
330
331
332
332
333
333
334
334
335
335
336
336
337
337
338
339
340
341
341
341
342
343
344
344
345
346
348
348
349
350
352
353
354
355
357
358
359
361
362
363
364
365
365
366
366
366
365
364
362
360
358
355
351
348
344
340
337
333
331
328
326
324
323
322
321
320
320
320
320
320
321
321
321
321
322
322
323
323
323
324
324
324
325
325
326
326
326
326
326
327
327
328
328
328
328
328
328
328
328
328
328
329
328
328
329
329
329
329
330
330
330
330
330
330
331
331
331
331
331
331
331
331
331
331
331
332
332
332
332
332
333
333
333
333
333
334
334
334
334
334
334
334
335
335
335
336
336
337
339
341
343
344
344
344
343
343
342
341
341
341
341
340
339
337
336
335
335
334
334
334
333
333
334
334
333
334
333
333
334
337
341
348
360
379
400
418
421
408
387
361
337
326
320
317
317
320
323
327
329
331
332
332
333
333
334
334
334
335
335
336
337
337
337
339
339
340
341
341
342
343
344
344
345
346
347
348
349
350
351
352
354
355
356
357
359
360
361
363
364
365
366
366
367
367
367
366
365
363
361
358
355
352
348
344
341
337
334
331
329
327
325
323
322
321
320
320
320
320
320
320
320
320
321
322
322
323
323
323
324
324
325
324
325
325
326
326
327
327
327
328
328
328
328
328
328
328
329
329
329
329
329
329
329
329
329
329
329
329
330
330
330
330
330
330
330
330
331
331
331
331
331
331
331
331
332
332
332
332
333
333
333
334
335
335
337
338
340
341
342
342
341
341
340
340
339
339
339
339
337
336
335
334
334
333
333
333
333
333
332
332
332
332
332
333
333
336
340
345
356
373
393
411
417
408
388
365
340
325
318
315
316
318
322
326
329
331
332
333
333
333
334
335
335
335
336
336
336
337
338
338
339
340
340
341
341
342
343
343
344
345
347
347
348
348
350
351
352
354
355
356
358
359
361
362
363
365
365
366
367
367
366
365
364
363
361
358
354
351
347
343
339
335
333
330
327
325
324
323
321
320
320
320
319
319
319
320
320
320
320
321
321
322
322
323
323
324
324
324
325
325
325
326
326
327
327
327
328
328
328
329
329
329
329
329
329
329
329
329
330
330
330
330
330
330
330
330
330
330
330
330
331
331
331
332
332
332
333
332
333
333
334
336
338
339
340
340
340
340
339
339
339
339
339
338
336
335
334
334
333
333
332
332
331
332
332
332
332
332
332
331
332
334
338
344
355
371
391
407
415
407
388
367
343
328
320
318
318
320
324
327
329
330
331
331
331
332
333
333
334
335
335
336
336
337
337
338
338
339
340
340
340
341
342
343
344
345
346
346
347
348
349
350
352
353
354
355
357
358
360
361
362
363
363
364
365
366
365
364
363
362
360
357
354
350
346
343
340
336
333
331
328
327
325
324
323
322
321
321
321
321
321
321
321
321
322
322
322
323
323
324
325
325
325
325
325
326
326
327
327
328
328
328
328
328
328
329
329
329
329
330
330
330
330
330
330
330
330
330
331
330
330
331
331
331
331
331
331
331
332
332
333
333
333
333
334
334
335
336
338
340
341
341
341
340
339
339
339
339
339
338
337
336
335
334
334
334
333
333
333
333
333
332
333
333
333
332
333
336
339
345
357
373
393
409
417
410
391
370
346
331
323
320
321
323
326
328
330
331
331
332
332
332
333
333
334
335
335
335
336
337
337
338
338
339
339
340
341
342
342
343
344
344
345
346
347
348
349
350
351
352
353
355
356
358
359
361
362
363
364
365
364
365
364
364
363
362
359
357
354
351
347
343
339
336
333
331
328
326
325
324
323
322
322
321
321
321
321
321
321
322
322
322
323
324
324
324
324
325
325
325
326
327
327
327
327
328
328
328
328
329
329
329
329
329
329
330
330
329
330
330
330
330
330
330
330
330
330
331
331
331
331
331
331
331
331
332
332
332
332
332
332
332
333
333
333
334
334
335
336
337
340
341
342
342
342
341
341
340
340
340
340
340
338
337
336
335
334
334
333
333
333
333
333
333
333
333
333
333
333
335
338
343
352
367
387
405
417
415
399
379
355
335
326
322
321
322
325
327
329
330
330
331
331
331
332
332
333
334
334
335
335
336
336
337
338
338
339
340
341
341
342
342
344
344
345
346
346
347
348
349
351
352
353
354
356
357
358
359
361
362
363
363
364
364
365
364
363
362
360
358
355
352
349
345
341
338
335
332
330
328
326
324
323
322
322
321
320
321
321
321
321
321
322
323
323
323
323
323
324
324
325
325
325
326
326
326
327
327
327
328
327
327
328
328
328
328
328
329
329
329
329
330
330
329
329
329
329
329
330
330
330
330
330
330
331
331
331
331
332
332
332
332
332
332
332
332
332
332
332
333
333
334
334
334
335
335
336
338
340
342
343
343
343
343
342
341
341
341
341
340
339
338
336
335
334
334
334
334
334
334
334
334
334
334
334
333
333
334
337
342
351
364
383
403
417
418
404
383
359
338
327
322
320
322
325
328
330
330
331
331
331
332
333
333
334
334
334
335
336
337
337
338
339
339
340
341
341
342
342
343
344
344
346
346
348
348
350
350
351
352
353
354
355
357
358
359
360
362
363
363
364
364
364
364
363
361
360
358
356
353
350
346
343
339
336
333
331
328
326
324
322
322
321
321
321
321
321
321
321
322
322
323
323
324
324
324
325
325
325
325
325
326
326
326
326
327
327
327
327
328
328
328
328
328
328
328
329
329
329
329
329
329
329
329
329
329
329
329
329
329
329
330
330
330
330
330
330
331
331
331
331
331
331
331
332
331
332
332
332
332
332
332
332
332
333
333
333
333
334
335
336
338
340
342
342
342
341
341
341
340
339
339
340
339
338
336
335
334
333
333
333
332
332
332
332
332
332
332
332
332
332
333
337
343
353
368
388
407
418
415
397
375
350
332
323
319
319
320
324
326
328
329
330
330
331
331
331
332
332
332
333
333
334
335
335
336
336
337
338
338
339
340
341
341
342
343
344
345
345
346
347
348
350
351
352
353
355
356
357
358
359
360
360
361
361
362
362
362
361
360
358
357
354
351
348
345
341
337
335
331
329
327
325
323
322
321
321
320
320
320
320
321
321
321
321
322
322
322
323
323
324
324
324
325
325
325
325
326
326
326
326
326
327
326
327
327
327
327
327
328
327
327
328
328
329
329
328
329
329
329
329
330
330
330
330
330
330
331
330
331
331
331
332
332
332
332
332
332
332
333
333
333
333
333
334
334
334
334
335
335
337
339
341
343
344
344
342
342
341
341
341
341
341
341
339
337
336
335
335
335
334
333
333
333
333
333
334
334
333
333
333
335
339
344
355
371
391
410
420
416
398
375
349
332
324
320
320
321
324
328
330
331
332
332
332
333
333
334
334
335
336
336
336
337
338
338
339
340
340
341
342
342
343
344
345
346
347
348
348
349
350
351
352
353
355
356
357
358
360
361
362
363
364
364
365
365
365
364
364
363
361
359
356
353
350
347
343
340
337
334
331
329
327
325
324
323
322
322
322
322
322
323
323
324
324
325
325
326
326
326
326
327
327
327
328
328
328
328
328
328
329
329
329
329
329
329
329
329
329
329
330
330
330
330
330
331
331
331
331
331
331
331
331
332
332
332
332
332
333
333
333
333
333
333
333
334
334
334
334
334
335
335
335
336
336
337
338
340
342
344
345
345
344
344
343
342
342
342
342
342
341
338
337
336
335
335
334
334
334
334
334
334
334
334
334
334
334
336
340
347
358
375
395
413
421
416
397
373
347
331
324
320
320
322
325
328
330
331
332
333
333
333
334
334
335
335
336
337
338
338
339
339
339
340
341
342
343
343
344
345
346
347
347
348
349
350
351
352
353
354
355
356
358
359
360
361
362
363
364
364
365
365
364
364
364
363
361
358
356
353
349
346
342
339
336
333
330
328
326
325
324
323
323
322
322
322
322
322
323
323
324
324
324
324
325
325
325
325
326
326
326
327
327
327
327
327
328
328
328
328
328
328
328
328
329
329
329
329
329
329
329
329
330
330
329
330
330
330
330
330
331
331
331
331
331
331
332
332
332
333
334
334
334
334
335
336
337
340
342
343
344
344
342
342
341
341
341
341
341
340
338
336
335
334
333
333
332
332
332
332
333
333
332
332
332
332
333
337
342
350
363
382
402
417
419
407
384
359
336
326
320
318
319
322
325
328
330
331
331
332
332
333
333
334
334
335
335
336
336
337
338
338
338
339
340
341
341
342
344
344
345
346
347
347
349
350
351
352
353
354
355
356
357
358
360
361
362
363
364
364
364
364
364
363
363
361
359
357
354
351
347
343
340
337
333
331
329
327
325
323
323
322
321
321
321
321
322
322
322
323
323
323
324
324
324
324
325
325
325
325
325
326
326
326
326
327
327
327
327
327
327
328
328
328
328
328
328
328
328
329
329
329
329
329
329
329
329
330
330
330
331
331
332
332
332
333
334
337
340
342
342
342
341
340
339
339
338
339
339
338
336
334
333
332
331
331
330
330
330
330
330
330
330
330
330
330
331
333
338
345
358
376
396
412
417
409
387
362
337
325
319
316
316
319
322
325
327
328
329
330
330
331
331
332
332
333
334
335
335
336
336
337
338
338
339
340
340
341
342
343
344
345
345
347
347
349
350
351
353
354
355
356
357
358
360
361
362
363
364
365
365
365
364
363
362
360
358
356
353
349
345
342
338
335
332
329
326
325
323
322
321
320
320
320
320
320
320
320
321
321
322
322
322
323
323
323
324
324
325
325
325
325
325
325
326
326
326
327
327
326
327
327
327
327
327
327
327
328
328
329
329
329
330
330
330
331
332
333
335
337
339
340
340
339
338
338
337
337
337
338
337
334
333
332
331
330
329
329
329
329
329
329
329
330
330
329
330
330
332
335
342
354
371
392
410
416
405
383
357
331
319
314
312
313
316
320
325
328
330
331
331
332
333
333
334
334
335
335
336
336
337
338
338
339
339
340
341
342
343
343
344
345
346
348
348
349
350
351
352
354
355
356
357
359
360
361
362
364
364
365
365
365
365
365
364
362
361
359
355
352
348
345
340
337
334
331
328
326
325
324
322
321
321
321
321
321
321
321
321
322
323
323
323
323
324
325
325
325
326
326
327
327
326
327
327
328
328
328
328
328
329
329
329
329
329
329
330
330
330
331
333
333
333
335
337
338
338
338
338
337
337
337
337
336
336
336
334
333
332
331
331
331
330
330
330
330
330
330
330
330
330
330
331
332
335
341
352
369
389
405
410
398
378
354
329
317
313
313
315
318
322
326
329
331
332
333
333
334
334
335
335
335
336
336
337
337
338
339
339
340
340
341
342
342
343
344
345
346
347
348
349
349
351
351
353
354
355
356
357
358
359
361
362
362
363
363
363
363
362
360
359
357
354
352
349
345
342
338
336
332
330
328
326
325
324
323
322
322
322
322
322
322
322
323
324
324
324
325
325
326
326
326
326
327
327
328
328
328
328
329
329
329
329
329
330
329
330
330
330
330
330
330
331
332
332
333
335
336
338
338
338
338
337
337
336
336
336
336
335
333
332
332
331
331
330
330
330
330
330
330
331
331
330
330
330
331
334
339
349
364
383
400
409
403
386
365
341
326
319
317
318
321
324
327
328
329
330
330
331
331
331
332
332
333
333
334
334
335
336
336
337
338
338
339
340
340
341
342
343
344
344
345
346
347
349
350
351
352
353
354
355
356
358
359
360
360
361
361
361
361
361
360
359
357
355
352
348
345
341
338
335
332
330
328
326
325
324
323
322
322
322
322
322
322
322
323
324
324
324
325
324
325
325
326
327
327
328
328
328
328
328
328
329
329
330
330
330
330
330
331
331
331
331
331
332
332
333
333
335
336
338
338
338
339
338
337
337
337
337
337
336
335
334
332
332
332
331
331
331
330
330
330
330
330
331
331
330
331
333
336
343
355
372
391
406
411
400
382
360
337
326
321
320
321
324
326
328
329
330
330
330
331
331
332
332
333
333
334
335
335
336
336
337
337
338
339
340
340
341
342
343
343
344
345
347
347
348
350
351
352
353
355
356
357
358
359
360
361
361
362
363
362
362
361
359
357
355
353
350
346
343
340
336
334
331
329
327
326
324
323
323
323
322
322
322
322
323
323
324
324
324
324
325
325
326
326
326
327
327
328
328
328
328
328
329
329
329
330
330
330
330
330
330
331
331
331
331
331
331
331
331
331
331
332
332
332
331
332
332
332
332
332
333
333
333
333
333
333
333
333
333
333
333
334
334
334
334
334
335
335
335
335
336
336
338
340
341
343
344
343
343
343
342
342
341
341
341
340
339
337
336
336
335
335
334
333
334
334
334
334
334
334
333
333
333
333
336
340
347
360
377
397
414
419
409
389
366
342
330
323
321
321
323
326
328
329
330
331
331
332
332
333
333
334
334
335
335
336
336
337
337
338
339
340
340
341
342
343
343
344
345
346
347
347
348
349
350
351
352
353
354
355
356
358
359
359
360
361
361
362
362
362
361
360
358
357
355
352
349
346
343
340
337
334
332
330
328
326
325
324
323
322
322
322
322
322
322
323
323
323
324
324
325
325
325
326
326
326
326
327
327
327
327
327
327
327
328
328
328
328
328
328
328
329
329
329
329
329
329
329
329
329
329
330
330
330
330
330
330
330
330
330
331
331
331
331
331
331
331
331
332
332
332
332
332
332
332
333
333
333
333
334
334
334
334
334
334
334
334
335
335
335
335
335
335
336
336
335
335
335
336
336
336
336
336
336
336
336
337
337
337
337
338
339
341
343
345
345
346
346
346
345
344
344
344
344
343
342
339
338
337
336
336
335
335
335
334
335
335
335
335
335
335
335
334
335
337
341
348
361
380
401
418
422
409
387
361
339
329
322
320
320
322
325
328
330
331
332
333
333
334
334
334
335
335
336
337
337
337
338
339
340
340
341
341
342
343
344
344
345
346
347
348
348
349
350
351
352
353
354
355
357
358
359
360
360
361
361
361
361
362
361
361
360
359
357
355
353
350
347
344
341
339
336
333
330
328
326
325
324
323
322
322
322
323
323
323
323
323
323
323
323
324
325
325
325
326
326
326
326
327
327
327
327
327
327
327
327
327
328
328
328
328
328
328
328
328
329
329
329
329
329
329
329
329
329
329
329
330
330
330
330
330
331
331
331
330
331
331
331
331
331
332
332
332
332
333
333
333
333
333
333
333
333
334
334
334
335
335
335
335
335
336
337
338
340
342
343
344
344
343
343
342
341
341
341
341
340
339
337
336
335
335
334
334
334
334
334
334
334
334
334
334
333
333
334
337
340
347
359
377
397
415
419
406
384
359
335
324
319
316
317
319
323
327
330
332
332
333
333
334
334
335
335
336
336
336
337
338
339
340
340
340
342
343
342
343
343
344
346
347
348
349
350
351
352
353
353
353
355
357
359
361
362
363
363
363
364
364
366
367
366
365
363
361
359
356
353
350
346
342
339
335
333
330
328
325
323
322
322
321
321
320
320
320
320
321
321
322
322
322
322
323
323
324
325
325
325
326
326
326
326
326
327
327
327
327
327
328
328
328
328
329
328
329
329
329
329
329
329
329
329
329
329
329
330
330
330
330
330
330
330
330
331
331
331
331
331
331
331
331
331
331
331
332
332
332
333
333
334
334
334
334
335
336
337
339
340
342
342
341
341
340
340
339
339
339
339
337
336
336
335
335
334
334
333
333
334
334
333
333
333
333
333
334
336
339
345
355
370
389
407
415
407
388
367
343
328
320
318
319
321
324
328
330
332
332
333
333
334
334
335
335
336
336
336
337
338
338
339
339
340
341
341
342
343
344
344
345
345
346
347
348
349
350
351
352
353
354
356
357
359
360
362
363
364
364
365
365
365
365
365
363
362
360
357
353
350
346
343
339
336
333
330
328
326
324
323
322
321
321
321
321
320
320
321
321
322
322
322
322
322
323
323
323
324
324
325
325
325
326
326
326
327
327
327
328
328
328
328
329
329
329
329
330
330
330
330
330
330
330
330
330
331
331
331
331
331
331
331
331
331
331
332
332
332
332
333
333
333
333
333
333
333
334
334
334
334
334
334
334
335
335
335
335
336
336
336
338
340
341
343
343
343
343
342
342
341
341
341
341
340
339
338
336
336
335
335
335
334
334
334
334
335
335
334
334
333
334
337
341
348
360
377
397
413
418
407
388
366
343
330
323
321
322
324
327
329
330
331
331
332
332
333
333
334
334
335
335
336
336
337
338
338
339
339
340
341
341
342
343
344
344
345
346
347
348
349
350
351
352
353
354
355
356
358
359
360
361
362
363
363
363
363
363
363
362
360
358
356
353
349
346
343
339
336
333
330
328
326
325
324
323
322
321
321
322
322
322
322
322
322
322
323
323
323
324
324
324
325
325
325
326
326
326
326
327
327
328
328
328
329
328
329
329
329
329
329
329
329
330
330
330
330
330
330
330
330
330
330
330
330
331
331
331
331
331
331
331
332
332
332
332
332
332
332
332
333
333
333
333
333
334
334
334
334
334
334
335
335
335
335
335
335
335
335
335
335
335
335
335
334
335
335
336
336
336
337
337
337
337
338
339
341
343
344
344
344
344
343
343
342
342
342
342
342
340
338
337
336
336
336
335
335
335
335
335
335
335
335
335
335
336
339
343
351
365
383
403
418
420
406
386
363
341
330
323
322
323
325
327
330
331
331
332
332
332
333
333
334
335
335
335
336
337
338
338
338
339
339
340
340
341
342
342
343
343
345
345
346
348
349
349
350
351
352
354
355
356
358
359
360
361
362
363
364
364
364
365
364
363
361
359
357
355
351
349
345
341
339
336
333
329
328
326
325
323
323
322
321
320
320
320
321
321
321
322
322
322
322
323
324
324
324
325
325
326
326
326
326
326
326
327
327
328
328
328
328
328
328
329
329
329
328
328
328
328
329
329
329
329
329
329
329
329
329
329
330
330
330
330
330
331
331
332
331
331
332
332
332
332
333
333
332
332
333
333
333
333
333
333
333
334
334
335
335
336
335
336
336
338
340
343
344
345
344
343
343
342
342
342
341
341
341
339
337
336
335
335
334
334
334
334
334
334
334
334
334
333
333
334
337
342
350
364
383
403
417
418
405
382
358
335
325
319
317
317
320
324
327
329
331
331
332
332
332
333
334
334
335
336
336
337
338
338
339
340
340
341
342
343
344
345
345
346
347
348
349
350
350
351
353
354
355
356
358
359
360
361
363
364
365
366
366
367
367
366
366
365
364
362
359
356
353
349
346
342
338
335
332
330
328
326
324
323
321
321
320
320
321
321
321
321
321
322
322
322
323
323
324
324
324
325
325
325
326
326
326
326
326
326
326
326
326
327
327
327
327
327
328
328
328
328
328
328
328
329
329
329
329
329
329
329
330
330
330
331
331
332
331
331
331
331
331
331
331
332
332
332
333
333
334
334
334
335
336
338
341
343
344
343
343
342
341
341
340
340
340
340
338
336
335
334
334
334
333
332
332
332
332
332
332
332
333
333
333
335
339
344
356
372
393
413
420
412
391
367
341
327
320
317
316
318
322
325
328
330
331
332
332
333
333
334
335
336
336
336
337
337
338
338
339
340
340
341
342
343
343
345
345
346
347
348
349
350
351
352
353
355
356
357
359
360
361
362
363
364
365
365
366
366
366
365
364
363
361
359
356
353
349
345
341
338
335
331
328
326
325
324
322
322
321
321
320
320
321
321
321
322
322
323
323
324
324
324
324
324
324
325
325
325
326
326
326
327
327
327
327
327
328
327
327
327
328
328
328
328
329
329
329
329
329
329
329
329
329
329
330
330
330
330
331
331
331
332
332
333
333
334
335
337
339
340
341
340
340
340
339
338
338
338
338
337
335
334
333
333
332
332
332
332
332
331
332
332
332
332
332
333
335
338
343
353
367
385
403
414
409
390
368
343
325
317
314
314
317
321
325
328
330
331
331
332
333
333
333
334
334
335
336
336
337
337
338
338
339
340
341
341
342
343
343
344
345
346
347
348
349
350
351
352
354
355
356
357
359
361
362
363
364
365
365
365
365
365
365
364
362
360
357
354
351
348
345
341
337
334
331
329
326
325
323
323
322
321
321
321
321
321
321
321
321
322
322
323
323
323
324
325
325
325
326
326
326
326
327
327
327
327
328
328
328
328
328
329
329
329
329
329
329
329
329
329
329
329
329
329
330
330
330
331
331
331
331
331
332
332
334
336
337
339
339
339
339
338
337
337
337
337
337
336
335
334
333
332
332
332
331
331
331
331
331
331
331
331
331
331
334
337
343
354
369
388
404
412
405
387
366
343
327
320
317
318
320
323
326
328
329
330
331
331
332
332
333
334
334
334
335
335
336
336
337
338
338
339
340
340
341
342
343
344
344
345
346
348
348
349
350
351
352
353
355
356
357
359
360
361
361
362
362
362
362
362
361
361
359
358
356
353
350
346
343
339
336
334
331
329
327
326
324
324
323
322
322
322
322
322
322
323
323
324
324
324
325
325
325
326
326
326
327
327
327
328
328
328
329
329
329
329
329
329
330
330
330
330
330
330
330
330
331
331
331
331
331
331
331
332
332
333
333
333
333
334
334
334
335
338
339
341
341
341
341
340
340
339
339
339
338
338
337
335
334
334
333
333
333
332
332
333
332
332
333
333
332
333
335
339
344
354
368
387
403
413
408
392
372
348
331
323
320
321
323
326
328
330
331
332
332
332
332
333
333
334
334
335
336
336
337
338
338
339
339
340
341
341
342
343
343
344
345
346
347
348
349
349
350
351
352
354
355
356
357
358
360
361
361
362
362
363
363
362
361
360
359
357
355
353
349
346
343
339
336
334
331
329
327
326
325
324
323
323
322
322
322
322
322
322
323
323
323
324
324
325
325
325
326
326
326
326
326
327
327
327
328
328
328
328
328
328
328
328
328
328
328
328
329
329
329
329
329
329
329
329
330
330
330
330
330
330
330
330
330
330
331
331
331
331
332
332
332
333
333
334
335
337
339
340
340
340
340
339
338
338
338
338
338
336
335
334
333
332
332
331
331
331
331
331
331
331
331
331
331
331
332
336
341
350
364
383
401
412
409
393
373
349
330
322
318
318
320
323
325
328
329
330
330
331
331
331
332
332
333
334
334
335
335
336
336
337
337
338
339
340
340
341
342
342
343
344
344
345
346
347
347
349
350
351
352
353
354
355
356
357
358
359
359
359
360
359
359
358
357
356
354
352
349
345
342
339
336
333
331
328
326
325
323
322
321
321
320
320
320
320
320
320
320
320
321
321
321
322
322
322
323
323
323
323
324
324
324
324
325
325
325
325
325
325
325
325
325
326
326
326
326
326
326
326
326
326
327
327
327
327
327
327
327
328
328
328
329
329
329
329
329
329
329
330
330
331
331
331
332
333
334
336
338
340
341
341
340
340
339
339
338
338
338
339
337
335
333
332
332
332
331
331
331
331
331
331
331
331
331
331
331
332
335
340
349
363
382
401
414
413
396
373
348
328
320
316
315
317
320
324
327
329
330
330
331
332
332
332
333
334
334
335
335
336
337
337
338
339
340
340
341
342
343
344
344
345
346
347
348
348
349
351
351
353
354
355
357
357
359
360
361
362
362
363
364
363
363
363
362
361
360
358
356
353
350
347
344
341
338
335
332
330
328
327
326
325
324
324
324
324
325
325
325
326
325
326
326
327
327
327
328
328
328
328
328
329
329
329
329
330
330
329
330
330
330
330
330
331
331
331
331
331
331
331
331
331
331
332
332
332
332
332
332
333
333
333
334
333
333
334
334
334
335
335
335
335
336
337
337
338
339
341
342
344
345
345
345
344
344
343
342
342
343
343
341
339
338
338
337
336
336
335
335
335
336
337
338
336
335
335
336
339
343
347
356
372
391
410
419
413
392
369
342
326
317
314
313
319
322
327
330
332
331
331
328
326
330
330
334
336
335
334
335
341
346
346
340
328
333
341
340
346
344
342
333
339
342
342
338
343
342
341
340
338
342
348
350
344
344
352
356
354
352
350
346
347
352
359
356
347
337
334
326
317
317
319
321
316
311
310
313
311
310
309
304
303
297
293
295
304
305
300
295
294
299
303
296
295
297
303
306
308
302
297
300
301
300
303
307
307
305
308
310
311
307
305
305
305
306
303
302
306
317
318
323
327
322
317
323
323
318
316
318
318
311
310
321
325
334
339
337
329
327
329
334
334
328
328
327
331
331
336
335
336
339
340
336
325
324
329
333
333
333
333
328
331
335
341
344
342
339
339
346
348
357
378
398
404
391
368
343
324
322
328
331
322
312
310
316
324
331
333
322
320
322
326
330
337
332
323
330
335
340
342
348
347
336
333
336
344
354
354
341
336
339
350
353
355
349
343
352
348
353
356
354
354
354
354
362
362
365
363
364
361
361
363
362
364
366
362
359
359
355
349
346
343
341
341
340
340
338
333
329
326
326
327
329
328
328
327
321
328
334
333
331
329
328
327
332
335
336
339
337
332
335
336
329
325
327
335
332
333
334
328
329
334
333
334
331
331
331
335
338
341
340
336
339
336
339
346
343
346
344
349
347
345
347
353
349
344
345
345
347
347
350
348
343
341
344
348
351
345
335
341
344
344
352
352
347
345
347
347
351
358
364
376
401
416
420
410
394
377
362
343
335
332
326
329
334
345
346
341
338
345
351
351
350
349
348
349
355
352
351
356
354
355
357
351
347
345
348
354
357
356
358
357
358
356
352
357
359
360
364
366
369
370
371
368
369
372
367
365
374
381
377
373
370
369
371
368
367
365
362
359
350
345
343
347
341
336
333
342
343
337
333
330
334
334
331
330
331
335
334
331
328
325
326
326
327
334
342
338
332
332
333
335
336
336
339
341
341
339
340
336
330
334
334
334
334
335
338
339
333
331
330
340
339
337
336
341
343
338
340
338
340
338
343
349
344
337
340
347
349
345
343
346
343
342
344
339
338
341
340
338
333
336
340
340
340
337
336
343
339
337
336
336
339
341
343
353
361
374
397
416
420
402
382
352
331
327
328
329
326
332
338
344
338
334
332
333
341
349
349
350
355
354
351
345
352
353
359
354
354
346
346
357
357
352
358
360
358
