312
312
313
313
314
314
315
315
315
316
316
316
316
317
317
317
317
317
317
317
318
317
317
317
317
318
318
318
318
318
318
318
318
319
319
319
319
320
320
320
320
320
321
321
322
324
327
329
329
329
328
327
326
326
325
325
326
325
324
322
320
319
319
319
319
318
318
319
319
319
319
319
319
318
318
320
324
330
340
357
379
403
418
416
395
364
333
308
298
297
301
306
311
315
318
319
318
318
318
318
319
319
320
320
321
323
323
324
324
324
325
326
327
328
328
329
330
331
332
332
333
334
335
336
337
338
340
341
343
344
345
347
348
349
350
350
351
351
352
352
351
349
348
346
343
340
336
333
329
325
322
319
317
315
313
312
311
310
310
310
310
309
310
310
310
310
310
311
311
312
312
312
312
312
313
314
314
314
314
315
315
315
315
315
315
315
316
316
317
316
316
316
316
317
316
316
317
317
317
317
317
317
317
317
317
318
318
318
319
318
318
318
318
319
319
319
319
319
319
319
319
319
320
320
320
320
320
320
320
320
320
320
320
321
321
321
321
321
322
322
321
321
322
322
322
322
322
323
323
323
323
323
322
322
323
323
323
323
324
324
324
324
324
324
325
325
326
326
326
327
328
330
332
333
333
333
333
332
331
330
330
330
330
329
327
325
324
323
323
323
322
322
322
322
322
322
322
322
321
321
321
322
326
332
344
362
386
410
425
423
402
371
339
315
304
302
304
308
312
316
318
319
318
318
318
318
319
319
319
320
320
321
322
323
323
324
324
325
326
326
327
327
328
329
330
330
332
333
334
335
336
337
338
338
339
341
342
343
345
346
347
347
348
349
349
349
348
348
347
346
344
343
341
338
334
331
328
325
322
319
317
314
312
311
310
310
309
309
309
309
309
309
310
310
310
310
311
311
312
313
312
312
312
313
313
313
314
314
315
315
315
315
315
315
315
315
315
315
316
316
316
316
316
316
316
316
317
316
316
316
317
317
317
317
318
318
317
317
317
318
318
318
318
319
318
318
318
318
318
318
318
319
319
319
319
319
320
319
319
320
320
320
320
320
321
321
321
322
322
321
321
322
324
326
328
330
331
331
330
330
329
328
327
326
327
327
327
325
323
321
321
320
321
320
320
320
320
320
320
320
320
320
319
319
320
324
331
343
361
384
408
422
416
392
359
326
305
298
299
303
307
312
315
318
318
318
318
318
319
319
320
320
320
321
321
322
323
324
324
325
325
326
327
327
328
329
330
331
332
333
334
334
335
336
338
339
341
342
343
345
346
347
348
350
351
351
352
352
352
351
350
349
346
344
341
338
334
330
326
323
320
317
315
313
311
310
309
308
307
307
307
307
307
308
308
308
309
309
309
310
310
311
311
311
312
312
312
312
312
313
313
314
314
314
315
315
315
315
315
315
315
316
316
316
316
316
316
316
315
316
316
316
316
316
317
317
317
317
317
317
317
318
318
318
318
318
318
318
319
319
319
319
319
319
319
319
319
319
320
320
320
320
320
320
320
321
321
322
322
322
322
323
324
326
328
330
331
331
330
329
328
328
328
327
328
328
327
324
322
321
321
321
321
320
321
321
321
320
320
321
321
321
321
322
325
330
340
357
380
403
418
416
394
363
332
308
299
298
302
307
311
316
318
319
319
319
320
320
320
320
321
321
322
323
323
324
324
324
325
326
327
328
329
330
330
331
332
332
333
334
335
336
337
339
340
341
342
343
345
346
348
349
350
351
352
352
352
352
352
351
350
348
346
344
340
336
332
328
325
321
319
316
314
313
312
311
310
309
309
309
308
308
309
309
309
310
310
310
311
311
312
312
312
312
313
313
314
314
314
315
315
314
314
315
316
316
315
316
316
316
317
317
317
317
317
317
317
317
317
317
317
317
317
317
318
318
318
318
318
318
318
318
318
319
319
319
319
319
319
319
319
320
320
319
320
320
320
319
320
320
321
321
321
321
321
321
321
322
322
322
323
324
326
329
330
331
331
330
329
328
328
328
327
327
327
327
326
323
322
321
320
320
320
320
320
320
320
320
320
320
320
320
321
325
330
342
359
382
406
421
419
397
367
335
311
301
300
303
307
312
316
318
318
318
318
318
318
319
319
319
320
320
321
322
323
323
324
324
325
326
326
327
328
329
329
330
331
333
334
334
335
336
337
338
340
341
343
344
345
347
348
350
350
351
352
351
351
351
350
349
347
345
343
340
336
332
329
325
322
319
316
314
312
311
310
309
308
308
308
308
308
308
308
308
309
309
310
310
311
311
311
311
312
312
312
313
313
313
314
314
315
314
314
314
314
314
314
315
315
315
315
315
316
316
316
316
316
316
316
316
317
317
317
317
317
317
317
317
318
317
317
317
318
318
318
318
318
319
319
319
319
319
319
319
319
320
320
320
320
320
321
320
321
321
321
322
322
324
325
327
329
331
331
331
330
329
329
328
328
327
328
328
326
324
322
321
320
320
320
319
319
319
320
320
320
319
319
319
320
323
328
336
351
372
396
416
422
408
379
347
318
302
299
301
305
309
313
316
318
318
318
318
318
319
319
319
320
320
321
321
323
324
324
324
325
326
327
327
328
328
329
330
331
333
333
334
335
336
337
338
340
341
342
343
345
346
348
349
350
351
352
352
351
351
351
350
348
347
345
342
338
335
330
326
323
320
318
315
313
311
309
309
308
308
308
308
308
308
308
308
309
309
309
310
310
310
311
312
312
312
312
312
312
313
313
314
314
314
314
315
315
315
315
315
315
315
316
316
316
316
316
316
316
317
317
317
317
317
317
317
317
317
317
317
317
318
318
318
318
318
318
318
319
319
319
319
319
319
319
319
320
321
321
321
321
321
322
323
325
327
329
330
331
331
330
329
328
328
327
327
327
327
325
322
321
320
320
319
319
318
319
319
319
319
319
319
319
318
320
323
329
339
356
378
401
418
417
397
366
333
308
298
297
300
305
309
314
317
318
319
318
318
318
319
319
320
320
321
322
323
323
324
324
325
326
326
327
328
328
329
330
331
332
332
334
335
336
337
338
339
341
342
344
345
346
347
349
350
351
352
353
353
353
353
351
350
349
346
344
341
338
334
330
326
323
320
317
315
313
312
310
310
310
309
309
309
309
309
309
309
310
310
311
311
311
312
312
312
313
314
314
314
314
314
315
315
315
316
316
316
316
316
316
316
317
317
317
317
317
317
317
317
317
317
317
317
317
318
318
318
318
318
318
318
318
318
318
318
319
319
320
320
320
320
320
321
321
322
324
326
328
329
329
329
328
327
326
326
326
326
326
324
322
320
319
319
319
318
318
319
319
319
318
318
318
318
318
318
320
325
331
344
362
385
406
416
407
380
348
317
298
293
294
299
304
309
313
316
317
318
318
317
317
318
318
318
319
319
320
321
322
322
323
323
323
324
325
326
327
327
329
329
330
331
332
333
334
335
336
338
339
340
342
343
344
345
347
348
349
349
350
350
350
349
348
347
344
342
339
336
332
328
324
321
317
314
312
310
308
307
307
306
306
306
306
306
306
306
306
306
307
308
308
309
309
309
309
310
310
311
311
311
312
313
313
313
313
313
313
314
314
314
314
314
314
314
315
315
314
315
315
315
315
315
316
315
316
316
316
316
316
316
317
317
317
317
318
317
317
317
317
318
318
319
319
319
320
321
322
324
326
328
330
329
329
328
327
326
325
325
326
325
323
321
320
319
319
319
318
318
318
319
319
320
320
319
319
318
319
323
328
338
353
375
398
416
418
400
370
338
311
298
297
301
306
311
315
317
319
319
318
319
319
320
321
322
322
322
322
323
324
325
325
326
326
327
328
328
329
330
331
331
332
333
334
335
336
337
339
340
340
342
343
345
346
347
348
350
351
351
352
352
352
351
351
349
348
346
344
340
337
333
330
326
323
320
317
315
313
311
311
310
310
310
309
309
309
309
309
309
310
310
310
311
311
311
312
313
313
313
314
314
314
314
314
315
315
315
316
316
316
316
316
316
316
316
317
317
317
317
317
317
317
317
317
318
318
318
318
319
319
319
319
319
319
319
320
320
320
320
320
320
321
322
322
322
323
324
324
326
329
331
332
332
331
330
329
328
328
328
329
329
327
324
323
322
321
322
322
321
320
320
321
321
321
321
321
321
321
323
327
334
346
365
388
411
423
415
390
357
325
304
298
300
304
309
313
318
320
320
320
320
320
321
321
322
323
323
323
324
325
325
325
326
327
328
328
330
330
331
332
332
333
334
335
336
337
338
340
341
342
344
344
346
347
349
350
351
352
353
353
353
354
354
353
352
351
349
346
343
340
336
332
328
325
322
319
317
315
313
312
312
311
310
310
310
310
310
311
311
311
311
312
312
312
313
313
314
314
314
315
315
315
315
315
316
316
316
316
317
317
317
317
317
317
317
318
318
318
318
318
318
318
318
318
318
318
318
318
319
319
319
319
319
319
319
319
319
319
320
320
321
321
320
320
320
321
322
322
322
322
323
324
326
328
331
332
332
331
330
329
328
327
327
328
328
327
325
323
322
321
321
321
321
320
320
320
320
320
321
320
320
320
321
324
330
339
354
376
401
419
420
402
371
338
311
300
299
302
306
311
315
319
320
320
320
320
320
321
321
322
322
323
323
324
324
325
326
327
327
327
328
329
330
331
332
333
333
334
335
336
337
338
339
341
342
344
345
346
347
348
349
351
352
353
353
353
353
352
352
350
349
347
344
341
337
333
330
326
323
320
317
315
313
312
311
310
309
309
309
309
309
310
310
310
310
311
311
311
311
312
312
313
313
313
313
313
314
314
315
315
314
315
316
315
315
316
316
316
316
316
316
316
316
316
316
316
316
316
316
317
317
317
317
318
318
318
318
317
317
317
318
319
319
319
319
319
319
319
319
319
320
320
320
320
320
320
320
321
321
322
323
326
328
330
330
330
329
327
326
326
326
326
326
326
324
321
320
320
320
319
319
318
318
318
318
318
318
318
318
317
318
321
325
333
347
368
392
412
418
402
372
339
310
296
294
297
301
306
311
314
316
318
317
317
317
318
318
319
319
319
320
320
321
322
323
323
324
324
325
325
326
327
328
329
330
330
331
332
334
335
336
337
338
339
340
341
343
344
346
347
348
348
349
349
349
348
348
347
345
343
340
337
334
330
326
322
318
315
313
311
309
308
307
306
306
305
304
304
304
305
305
305
306
306
306
306
307
308
308
309
309
309
309
309
310
310
311
311
311
311
311
311
311
312
312
312
312
313
313
313
313
313
313
312
312
313
313
313
313
313
314
314
314
314
314
314
314
314
314
314
315
315
315
315
316
316
316
316
316
316
317
318
318
318
318
318
319
320
321
324
327
328
328
327
326
325
325
324
324
324
325
324
322
320
319
319
319
318
318
318
318
318
318
318
318
318
318
317
318
321
326
334
348
370
394
413
416
399
369
336
309
296
294
298
303
308
312
316
317
318
318
319
319
319
319
320
320
321
322
322
323
324
325
325
326
327
327
328
329
329
330
331
332
333
334
336
336
337
338
339
340
342
343
345
346
347
349
350
351
351
352
352
352
351
351
350
349
347
344
341
337
333
330
326
323
319
316
314
313
312
311
310
310
309
309
309
309
309
309
309
309
309
310
311
311
312
312
312
313
313
313
313
314
315
315
315
316
316
317
317
316
316
316
316
317
317
317
317
317
318
317
317
318
318
318
318
318
319
319
319
319
319
319
319
319
319
320
320
320
320
320
321
320
320
321
321
321
321
321
322
322
322
322
322
322
322
322
323
323
323
324
324
324
325
326
328
330
332
333
333
332
331
330
329
329
329
329
329
328
326
324
323
322
322
322
322
322
322
322
322
322
322
322
321
320
321
325
332
342
360
383
406
422
419
397
366
333
309
300
299
303
308
313
317
319
320
320
320
320
320
321
322
322
323
323
323
324
325
326
326
327
328
329
330
330
331
331
332
333
334
335
336
337
338
339
340
341
342
343
345
346
347
349
350
351
352
352
353
353
353
353
352
351
349
348
345
342
338
334
331
327
324
320
318
316
314
313
312
311
310
310
310
310
310
310
310
311
311
312
312
312
312
312
313
313
313
314
314
315
315
315
315
315
316
317
316
317
317
317
317
317
318
318
317
317
318
318
318
318
318
318
318
318
318
319
319
319
319
319
319
319
319
319
320
320
320
320
320
320
320
320
321
321
321
321
321
321
321
321
321
321
321
322
322
323
323
322
322
323
323
324
324
324
325
325
327
329
331
333
333
333
331
331
330
330
330
330
330
330
328
325
324
323
322
322
322
322
322
322
322
322
322
322
321
321
321
324
329
337
351
372
396
417
423
409
381
348
319
303
299
301
305
310
314
318
319
320
320
320
320
320
320
321
322
323
323
324
324
325
325
326
326
327
328
328
329
330
331
331
332
334
334
335
336
337
338
339
340
342
343
344
345
347
348
349
350
351
352
352
352
351
350
349
348
346
344
341
338
334
331
327
324
321
318
316
313
312
310
309
309
308
308
308
308
308
308
309
309
309
310
310
310
311
311
312
312
312
312
312
313
313
313
313
314
314
314
314
315
315
316
316
316
315
315
316
316
316
316
315
316
316
316
316
317
317
317
317
317
317
317
317
318
318
318
318
318
318
318
318
319
319
319
319
319
319
320
320
320
320
320
320
320
321
321
320
320
320
321
321
322
323
323
322
323
324
325
326
329
330
331
331
330
329
329
328
327
328
328
328
326
324
322
321
321
321
320
320
320
320
320
320
320
320
320
320
320
322
327
335
349
369
394
415
422
408
379
346
316
300
297
300
304
308
313
317
319
320
320
320
320
320
320
321
322
322
322
323
324
324
325
326
326
327
327
328
329
330
331
331
332
333
334
335
336
337
338
339
341
342
343
344
346
347
348
350
351
352
352
352
352
353
352
350
349
347
345
342
339
335
331
328
324
321
318
316
313
312
311
310
309
309
308
308
308
307
308
308
308
309
309
310
310
310
311
311
311
312
312
312
313
313
313
313
313
314
314
314
315
314
315
315
315
315
315
315
315
316
316
316
316
316
315
316
316
316
316
317
317
317
317
317
318
318
317
318
318
318
318
319
319
319
318
318
319
319
319
319
320
320
320
320
320
321
321
321
321
322
323
325
327
329
330
330
329
328
328
327
327
326
326
326
326
324
322
321
320
320
319
319
319
319
320
319
319
319
319
319
319
320
323
329
339
356
379
402
416
412
389
357
325
301
293
294
299
304
309
314
317
319
319
319
319
319
320
320
321
322
322
322
322
323
324
325
326
326
326
327
328
329
329
330
331
332
332
333
335
336
337
338
339
340
342
343
345
346
347
348
349
350
350
351
351
352
351
350
349
347
345
342
339
335
331
328
324
321
318
315
313
311
310
308
307
307
307
307
307
307
307
307
307
308
308
308
308
309
309
309
310
311
311
312
312
312
312
312
313
313
313
314
314
314
314
315
315
315
315
315
315
315
315
316
316
316
316
316
316
316
316
316
316
316
317
317
317
317
317
317
318
318
318
318
318
318
318
319
319
319
320
320
320
320
321
321
321
322
322
323
325
328
330
331
331
330
329
328
327
327
327
327
327
326
324
322
320
320
320
320
320
320
320
320
320
320
321
320
319
320
323
328
335
348
367
391
412
421
410
383
351
320
303
298
300
304
309
314
317
319
320
320
320
320
320
321
321
322
322
323
324
324
325
326
327
328
328
328
329
329
330
331
332
333
334
335
336
336
337
339
340
342
343
344
346
347
348
349
350
351
352
353
353
354
353
352
352
350
348
346
343
340
336
332
328
325
322
319
317
315
313
312
311
310
310
309
309
310
310
310
310
311
311
311
312
312
312
313
312
313
314
314
314
314
314
314
314
315
315
315
316
316
316
316
316
316
317
317
317
317
317
317
317
317
317
317
317
317
318
318
318
318
318
318
318
318
318
318
318
319
319
319
319
319
319
319
320
320
320
320
321
321
322
323
325
328
330
331
331
330
328
327
326
326
326
327
327
326
323
321
320
319
319
319
319
319
319
319
319
319
319
319
318
318
320
324
331
344
362
386
409
420
413
387
355
323
303
296
297
302
307
311
315
317
318
318
317
317
318
319
319
319
320
320
320
321
322
323
323
324
325
325
326
327
328
329
329
330
331
332
333
334
335
336
337
339
340
341
343
343
345
346
348
349
350
350
351
351
350
350
349
348
346
343
340
337
333
329
325
322
318
316
314
312
310
308
308
307
307
306
306
306
306
306
306
306
307
307
308
308
308
309
309
309
310
310
310
311
311
312
312
313
313
313
312
312
313
313
313
313
314
314
314
314
314
314
314
314
314
314
314
315
315
315
315
315
316
315
315
315
316
316
316
316
317
317
317
317
317
318
318
318
318
318
319
319
320
320
320
320
321
323
326
328
329
329
328
327
326
325
325
325
325
325
324
322
320
319
319
319
318
318
318
318
318
318
318
319
318
318
317
319
324
331
343
362
385
408
420
413
387
355
322
302
295
297
301
306
311
315
317
318
318
317
317
317
318
318
319
320
321
321
322
322
323
323
324
325
326
326
327
328
329
329
330
331
332
333
334
335
337
338
339
341
342
343
344
346
347
348
349
350
350
351
351
351
351
350
349
347
344
342
338
334
330
327
323
320
317
315
313
311
310
309
308
308
307
307
308
308
308
308
308
309
310
310
310
311
311
311
311
312
312
312
313
313
313
313
313
314
314
314
314
315
315
315
315
315
315
315
315
315
315
315
315
315
315
315
315
315
316
316
316
316
317
317
317
317
317
317
317
317
318
317
317
317
317
318
319
319
319
319
319
320
320
320
321
322
324
326
328
329
330
330
329
328
327
326
326
326
326
326
324
322
320
320
320
320
319
319
319
319
319
319
319
320
319
319
319
321
325
332
345
364
388
411
421
411
382
349
317
300
295
298
302
307
312
316
319
320
320
319
319
320
320
320
321
322
323
323
323
324
325
325
326
327
328
328
328
329
331
331
332
333
334
334
335
337
338
340
340
341
343
345
346
348
349
350
351
352
352
353
353
353
352
352
350
348
345
342
338
334
330
327
324
321
318
315
313
311
310
309
309
308
308
308
308
308
308
308
309
309
309
310
310
310
311
311
312
312
312
313
313
313
314
314
314
314
314
314
314
314
315
315
315
316
316
316
316
316
316
316
316
317
317
317
317
317
317
317
317
317
318
318
318
318
318
318
318
318
318
318
318
319
319
319
319
319
319
320
321
321
321
321
322
323
325
327
329
330
330
329
329
328
327
327
327
327
327
326
324
322
321
320
320
320
320
320
320
320
320
320
320
320
319
319
321
324
329
339
378
402
419
419
398
367
334
308
297
296
300
305
310
314
318
319
320
319
319
320
320
321
321
321
322
323
323
323
324
325
325
326
327
328
328
329
330
330
331
332
333
334
335
336
337
339
340
341
342
344
345
346
348
349
350
351
352
352
352
352
352
351
350
348
345
343
340
336
332
329
325
321
319
316
314
312
311
310
309
308
308
308
308
308
308
308
309
309
310
310
310
311
311
311
312
312
312
313
313
313
314
314
314
314
315
315
315
316
316
316
316
316
316
316
316
317
317
317
316
317
317
317
317
317
317
317
317
317
318
318
318
318
318
318
318
318
319
319
319
319
319
319
319
319
319
320
320
320
321
321
321
321
321
321
322
323
325
327
330
331
330
329
329
328
327
327
327
327
327
326
324
322
320
320
320
320
319
319
320
320
320
320
320
320
319
319
320
324
329
340
356
379
403
420
419
399
368
335
309
299
298
301
305
310
315
317
318
319
319
318
319
319
319
320
320
321
322
323
323
323
324
325
325
326
327
328
328
329
330
331
331
332
334
334
335
336
338
339
340
341
342
344
346
347
348
350
350
351
351
352
352
351
350
350
348
346
343
340
336
332
328
325
322
319
316
314
312
311
310
309
309
308
308
307
307
308
308
309
309
310
310
310
310
311
311
312
312
313
313
313
313
314
314
315
315
316
316
316
316
316
316
317
317
317
317
317
316
316
316
316
317
317
317
317
318
318
318
318
318
318
319
319
318
318
318
319
319
319
319
319
319
319
319
320
319
320
320
320
320
320
320
321
320
320
321
321
322
322
322
323
324
325
327
329
331
332
331
330
330
329
328
328
328
328
327
327
325
323
321
321
321
320
320
320
320
320
320
320
320
320
320
319
321
326
333
345
364
388
411
423
416
391
358
326
305
299
300
303
308
313
316
318
319
319
318
318
319
319
320
320
321
321
322
322
322
323
324
325
325
326
327
328
329
329
330
331
332
333
333
334
335
336
337
339
340
342
343
344
346
347
348
350
351
351
352
352
352
351
350
349
347
345
342
339
335
331
327
324
321
318
315
313
311
310
309
308
308
308
308
308
308
308
308
309
309
310
310
310
310
311
311
312
312
313
313
313
313
313
314
314
314
315
315
315
315
316
316
315
315
316
316
316
316
316
317
317
317
317
317
317
316
317
317
318
318
318
318
318
318
318
318
319
318
318
319
319
318
319
319
319
319
319
320
320
320
320
320
320
320
320
321
321
322
322
322
322
322
323
324
327
330
332
332
332
330
329
328
328
328
328
328
328
327
325
323
321
320
320
320
320
320
320
320
320
320
320
320
319
319
321
326
332
345
364
388
411
423
414
388
354
322
303
297
299
303
308
312
316
319
320
319
319
319
319
319
320
320
321
322
322
323
324
324
325
325
326
327
328
328
329
329
330
331
332
333
335
335
336
338
339
340
341
343
344
345
346
348
350
351
352
353
353
352
352
352
352
350
348
346
342
339
335
332
328
324
320
317
315
313
311
310
309
309
308
308
308
308
307
307
307
308
308
309
309
310
311
311
311
312
312
312
312
312
313
313
313
313
313
314
314
315
315
316
316
315
315
315
316
316
316
316
316
316
316
316
317
317
317
317
317
317
317
317
317
317
317
318
318
318
318
319
318
318
318
319
319
319
319
319
320
320
320
320
321
321
320
321
321
322
322
322
322
323
324
326
329
331
331
330
330
329
328
327
328
328
328
328
327
325
323
322
321
320
320
320
320
320
320
320
320
321
320
320
320
321
326
331
343
361
384
407
421
415
390
358
325
303
296
297
300
305
310
315
318
319
319
319
319
319
320
320
321
321
322
322
323
323
324
325
325
326
326
327
329
329
330
331
332
333
334
335
335
336
337
339
340
341
343
345
347
349
350
351
351
352
352
352
353
352
352
350
348
346
343
339
335
331
328
324
321
318
316
314
312
310
309
308
308
308
308
308
308
308
308
308
308
309
309
310
310
311
311
311
311
312
312
313
313
314
313
313
314
314
314
314
314
315
315
315
316
316
316
316
316
316
316
316
316
316
317
317
317
318
318
317
317
317
317
317
317
317
318
318
318
318
318
318
318
319
319
319
319
319
319
320
320
320
320
320
320
321
321
322
322
322
322
323
325
327
329
331
331
330
329
329
328
328
327
327
328
328
326
324
322
320
320
320
320
320
320
320
320
320
320
320
320
319
320
322
327
335
348
369
393
415
423
411
383
350
319
302
297
299
304
308
312
316
318
318
318
318
318
319
319
320
320
321
322
322
323
323
323
324
325
325
326
327
328
329
329
330
331
332
333
334
335
336
337
338
339
341
342
343
345
346
347
349
350
351
352
352
352
352
351
350
348
346
344
341
338
335
331
327
323
320
317
315
313
311
310
309
308
308
307
307
307
308
308
308
308
308
309
309
309
310
310
310
311
311
312
312
312
313
313
313
313
313
314
314
315
314
315
315
315
315
316
316
316
315
315
316
316
316
316
316
317
316
316
316
317
317
317
317
317
317
317
318
318
318
318
319
319
318
318
318
319
319
319
319
319
319
319
320
320
321
321
321
321
321
321
320
321
321
322
322
323
323
324
325
327
330
331
332
332
331
330
329
329
329
328
328
328
327
325
324
322
322
322
322
321
320
321
321
321
321
322
322
321
320
322
326
332
344
363
386
410
424
419
396
364
331
308
300
300
303
307
312
316
318
319
319
319
318
318
319
320
320
321
322
322
322
322
323
324
325
326
327
327
327
328
329
329
330
331
332
333
334
335
336
337
339
340
341
342
344
345
346
347
349
350
350
351
352
352
351
351
350
348
346
343
340
336
333
329
326
323
319
316
314
312
311
310
309
309
308
308
308
308
308
308
309
309
309
309
310
310
311
311
311
312
312
312
313
313
313
314
314
314
314
314
314
314
314
315
315
315
315
316
316
316
316
316
316
316
316
316
316
316
316
316
317
317
317
317
317
317
317
317
317
317
317
318
318
318
318
318
319
319
319
319
319
319
320
320
320
320
320
320
320
321
321
321
322
322
322
322
323
324
325
328
330
331
331
330
329
328
328
327
327
328
328
327
325
323
322
321
320
320
320
320
320
320
320
320
320
320
320
319
321
325
331
341
358
380
405
422
421
401
370
337
311
300
298
301
306
310
314
318
319
319
319
318
318
319
319
320
321
321
322
323
323
323
324
325
326
326
327
327
328
328
329
330
331
332
333
334
336
336
337
339
340
342
343
344
345
347
348
350
350
351
352
352
352
352
351
350
349
347
345
341
338
334
330
326
323
320
317
315
313
311
310
309
308
308
308
307
307
307
307
308
309
309
309
310
310
311
311
311
311
311
312
312
312
313
313
314
314
314
314
315
315
315
315
315
315
315
315
315
316
316
316
316
317
317
317
317
317
317
317
318
317
317
317
317
318
317
318
318
318
317
318
318
318
319
319
319
320
320
319
319
320
320
320
320
320
320
320
320
321
322
322
322
323
324
325
327
329
331
331
331
330
329
327
327
327
327
327
327
325
323
321
320
320
320
320
320
320
320
320
320
320
320
320
319
320
323
329
338
353
375
399
417
418
399
368
335
307
296
295
298
303
309
313
317
319
319
319
319
319
320
320
320
320
321
322
322
323
323
324
325
326
327
327
328
329
329
330
331
332
333
333
334
335
336
338
339
341
342
344
345
347
348
348
350
351
352
352
353
354
353
352
351
350
348
345
342
338
334
330
326
323
320
317
315
313
311
310
309
308
308
307
307
307
307
308
308
308
309
309
310
310
311
311
311
311
312
312
312
313
313
313
314
314
314
315
315
315
315
315
316
316
316
316
316
316
316
316
316
317
316
316
316
317
317
317
317
317
317
317
318
318
318
318
318
318
318
319
319
319
319
319
320
320
320
320
321
321
322
323
325
327
329
330
329
329
328
327
326
326
326
326
326
325
322
320
319
319
319
319
319
319
320
320
319
319
319
319
318
319
321
325
331
343
360
383
406
419
413
387
354
322
300
293
295
299
305
310
314
317
318
319
319
319
319
319
320
320
321
322
322
322
323
324
325
325
326
327
327
328
329
330
331
332
332
333
333
334
336
337
339
340
341
342
344
345
347
348
350
351
352
352
353
353
353
352
352
351
348
346
343
340
336
332
328
325
321
318
316
314
313
311
310
309
308
308
307
308
308
308
308
308
309
309
310
310
311
311
311
311
312
313
313
313
313
313
313
314
314
315
315
315
315
315
315
316
316
316
316
316
317
317
317
317
317
317
317
317
317
317
318
317
317
317
317
317
318
318
318
318
318
318
319
318
318
318
319
319
319
319
320
320
320
321
321
322
322
323
325
328
330
330
330
329
328
327
327
326
326
326
326
325
323
321
320
320
320
320
319
319
319
319
319
320
320
320
319
319
321
325
332
344
363
386
409
422
416
392
360
327
305
297
297
301
305
310
314
317
318
318
318
318
318
319
319
320
321
321
321
322
323
324
324
325
325
326
327
327
328
329
329
330
331
332
333
334
335
337
338
338
340
341
343
344
345
347
348
349
350
351
352
352
352
352
351
350
348
346
343
339
336
332
328
324
321
318
316
314
312
310
309
309
308
308
308
308
308
308
308
308
309
309
310
310
310
310
311
311
312
312
312
313
313
314
314
314
314
314
315
314
315
315
315
315
315
315
316
316
316
316
316
316
316
316
316
316
316
317
316
317
317
317
317
318
318
318
318
318
318
318
318
318
319
319
319
319
320
321
321
321
321
322
322
324
327
330
331
331
330
329
327
326
326
327
327
327
326
324
322
321
320
320
320
319
319
319
320
319
319
319
319
319
318
320
323
329
338
353
375
399
419
422
405
375
341
313
299
296
299
304
308
313
317
318
319
319
318
318
319
320
320
321
321
321
322
323
323
324
325
325
325
326
327
328
329
330
331
331
332
333
334
335
336
337
338
340
341
342
344
345
347
348
349
351
351
352
352
353
352
351
350
349
347
344
341
337
333
328
325
321
319
316
314
312
310
309
308
307
307
307
307
307
307
307
307
308
308
309
309
309
310
310
310
311
311
311
312
312
313
313
313
313
314
315
314
314
314
314
314
315
315
315
316
316
316
316
316
316
316
316
316
316
316
317
317
317
317
317
317
317
317
318
318
318
318
318
319
318
318
318
318
318
318
318
319
319
319
320
320
320
321
321
322
322
322
323
324
326
329
330
331
330
329
328
328
327
327
327
327
327
326
323
322
321
320
320
319
319
319
319
319
319
319
319
319
319
319
321
325
332
344
362
385
409
423
417
393
360
328
306
298
297
301
306
311
315
318
319
319
318
318
319
319
320
320
321
321
322
323
324
324
325
325
326
327
327
328
329
330
330
331
332
333
334
335
336
337
339
340
341
343
344
345
347
348
350
351
352
353
353
353
353
353
352
351
349
346
344
341
337
333
329
325
322
319
316
314
312
311
310
309
308
308
308
308
308
308
308
308
308
308
309
310
310
311
311
312
312
312
312
313
313
313
313
314
314
314
314
315
315
315
315
315
316
316
316
316
316
317
317
317
317
317
317
317
318
317
317
317
317
317
318
318
318
318
318
318
318
318
318
318
319
319
319
319
319
319
320
319
319
320
320
320
320
320
320
320
320
321
321
321
321
321
321
321
322
322
323
323
324
323
324
324
325
328
330
332
332
332
331
330
329
328
328
328
329
328
327
325
323
322
321
322
321
321
321
321
321
321
321
321
321
320
320
322
326
333
344
362
386
409
423
418
394
362
329
307
298
298
302
306
311
315
318
319
319
319
319
318
319
320
320
320
321
322
323
323
324
324
325
325
326
327
328
329
330
330
331
331
332
333
334
335
335
335
335
338
341
343
345
347
348
349
349
350
351
351
352
352
352
351
350
348
346
343
340
335
331
328
325
321
318
316
314
314
312
310
308
309
310
311
310
307
304
304
304
302
300
300
305
308
304
301
301
306
313
316
315
313
311
310
311
313
308
306
305
303
308
317
317
316
314
311
306
309
322
331
326
320
318
316
320
323
323
321
310
301
306
317
322
325
326
322
325
325
324
322
319
318
319
318
317
323
328
326
328
329
325
320
318
317
317
322
330
322
314
311
311
320
334
337
328
320
314
321
335
343
340
327
316
317
322
325
325
321
322
327
327
320
314
311
316
317
318
323
326
324
320
315
314
313
311
311
317
324
325
327
342
371
403
417
411
383
356
330
305
293
291
290
290
297
308
319
323
320
311
305
303
305
309
306
302
304
310
314
311
309
317
324
326
322
318
313
311
313
311
306
305
311
317
323
327
324
320
319
323
329
331
334
334
332
333
340
337
334
336
337
334
333
334
337
333
332
341
348
337
321
314
303
297
299
299
303
308
306
294
287
292
299
304
309
314
311
308
308
304
298
294
298
303
307
313
314
312
311
310
308
313
322
321
317
321
327
327
315
307
309
310
315
321
319
315
316
314
313
318
320
317
316
321
322
317
313
315
318
320
320
321
320
318
314
315
323
331
325
316
310
311
315
319
320
313
316
323
326
324
324
322
324
328
325
326
338
345
341
332
328
325
328
331
330
329
333
340
337
331
325
325
326
323
319
319
323
326
326
324
322
319
316
313
317
322
328
340
347
357
372
393
414
426
417
394
355
320
305
301
296
303
310
315
320
323
330
328
326
320
321
322
320
322
320
319
317
319
319
321
320
313
307
317
329
332
321
308
300
297
304
313
316
317
311
292
281
288
293
294
298
304
306
309
310
307
312
311
312
318
323
320
312
304
303
302
306
302
296
289
285
286
289
286
282
280
275
278
280
277
275
270
271
273
279
280
277
277
276
275
286
294
295
290
287
281
282
291
299
304
297
298
298
297
300
296
293
294
300
304
306
301
299
301
306
312
315
320
319
311
302
304
311
306
306
309
312
316
320
321
322
315
302
290
287
299
309
