343
343
343
343
344
344
344
344
344
344
345
345
346
346
346
346
346
346
347
346
347
347
348
348
349
349
349
349
350
350
350
350
350
350
350
350
350
350
350
350
351
351
351
351
352
352
352
353
353
354
355
354
355
356
358
360
364
368
371
373
373
373
372
371
370
369
369
370
368
365
362
359
356
355
353
351
350
349
348
349
348
348
348
347
346
347
352
360
377
404
444
489
531
552
544
516
475
428
394
368
350
339
335
335
336
336
336
336
337
338
339
339
341
342
344
345
346
347
349
350
352
353
355
356
359
361
363
364
366
368
370
372
375
377
380
382
385
388
391
394
398
401
404
408
412
415
418
419
421
423
424
424
424
423
421
418
413
408
401
394
386
378
370
362
355
348
342
336
332
328
325
322
320
318
318
317
317
316
317
318
318
318
319
320
321
322
323
324
324
325
326
327
327
328
328
329
330
330
331
332
332
332
333
334
335
335
335
336
336
336
336
337
338
338
338
339
339
339
339
339
339
340
340
339
340
340
340
340
341
341
341
341
342
343
343
343
344
344
344
344
344
345
345
345
346
346
347
347
348
349
349
349
350
350
350
350
350
351
351
351
351
351
352
352
352
353
354
355
355
355
357
358
360
364
368
370
372
373
374
373
372
371
371
371
370
370
367
363
360
358
356
354
353
352
351
351
351
350
350
349
348
347
348
353
361
376
400
437
482
524
546
540
511
468
420
385
360
343
333
330
331
333
336
338
340
342
343
344
346
347
347
349
350
352
354
355
356
358
359
361
363
364
366
368
370
372
374
376
378
380
383
386
389
392
396
398
402
405
409
412
416
420
424
426
429
431
433
433
434
432
431
428
424
419
413
406
398
389
381
372
364
356
349
342
336
331
327
324
322
320
319
319
319
318
318
318
319
319
320
321
321
322
323
325
326
326
327
329
329
330
331
332
332
333
333
334
335
336
336
337
337
338
338
338
339
340
340
341
341
341
341
341
341
340
340
341
341
342
342
342
342
343
342
342
343
343
343
343
343
344
344
344
344
345
345
345
345
346
346
347
346
347
347
347
347
348
348
348
349
349
349
350
350
353
356
360
363
366
368
368
367
367
366
365
364
364
364
362
359
355
352
350
347
346
345
344
343
342
342
342
342
341
341
340
342
348
356
373
400
439
482
518
532
516
484
440
396
363
341
328
322
321
323
326
329
331
332
334
336
337
338
339
340
342
344
345
347
348
350
351
353
354
355
357
359
361
363
365
367
369
371
374
376
379
381
384
387
391
395
399
403
407
411
414
417
420
423
425
426
427
426
425
423
419
414
408
400
392
383
374
364
356
348
341
333
328
322
319
315
313
311
310
309
309
309
309
309
309
310
311
311
311
313
313
315
316
317
318
320
321
321
322
323
324
325
326
327
327
328
329
330
331
331
332
333
334
333
333
334
334
335
336
337
336
336
336
336
337
338
338
339
338
339
338
339
339
339
339
339
340
340
340
340
340
340
341
341
342
341
342
342
343
343
343
344
344
345
346
346
347
348
349
351
355
359
362
365
366
366
366
364
364
363
362
362
361
358
356
353
351
350
349
347
346
345
345
344
344
344
344
343
342
344
348
355
369
394
431
475
516
539
535
509
469
422
385
360
343
334
331
332
334
336
338
339
340
341
342
344
344
345
346
347
349
351
353
354
356
358
360
362
364
365
367
369
371
373
375
378
380
384
387
390
393
395
398
401
405
409
413
416
421
424
428
430
432
434
435
434
434
433
430
426
421
414
406
398
389
381
373
365
358
352
345
340
335
332
329
327
326
326
325
324
324
325
325
326
326
327
327
329
329
331
332
333
334
335
336
337
338
339
340
341
342
343
344
345
345
346
347
348
349
349
350
350
350
350
351
351
352
352
352
352
353
352
352
353
353
354
354
355
354
355
355
356
356
356
357
357
357
358
358
358
358
358
358
359
359
359
359
360
360
361
361
362
362
363
362
362
363
364
365
365
366
367
368
370
373
377
380
383
384
385
385
384
383
382
382
381
382
380
378
374
371
369
368
366
364
363
363
362
362
362
362
361
360
360
363
370
381
403
435
479
523
557
565
546
511
465
423
393
371
358
351
349
348
349
350
351
352
352
353
354
355
356
358
359
360
362
364
366
367
368
371
373
375
376
379
381
382
384
386
388
391
393
396
399
402
405
408
412
415
418
422
426
430
434
437
440
442
444
444
445
445
443
440
436
432
426
420
412
404
396
387
378
370
363
356
351
346
343
339
337
335
334
333
332
332
332
332
332
333
333
334
335
335
336
337
338
339
340
341
342
344
345
346
347
347
348
348
349
350
351
351
352
352
353
354
354
355
354
355
354
354
354
355
356
356
356
357
357
357
357
357
357
358
358
358
358
359
358
359
359
360
361
361
361
361
362
362
362
362
362
362
362
362
363
364
365
366
368
369
369
370
372
374
378
382
384
386
386
386
386
385
384
384
384
384
382
378
374
371
368
367
365
364
363
362
362
361
361
361
361
360
359
361
367
376
394
422
462
509
548
565
553
521
476
430
398
373
358
348
346
347
348
350
351
352
353
354
355
356
357
358
359
361
362
364
365
366
368
370
372
374
375
377
379
381
383
384
386
389
391
394
396
399
403
406
410
413
417
421
425
429
432
435
438
441
442
444
444
444
443
441
437
432
426
418
410
401
392
384
375
366
358
351
346
341
337
334
331
329
328
327
327
326
326
326
326
327
327
328
329
330
331
332
333
334
334
335
336
338
338
339
340
340
340
341
342
343
343
343
343
344
344
345
345
345
346
346
346
346
347
347
348
349
349
350
350
350
350
349
349
348
349
349
349
350
350
351
351
352
352
353
353
353
353
353
353
354
354
354
354
355
355
356
357
357
358
357
358
359
360
361
363
366
370
374
376
378
378
378
378
376
376
375
374
374
371
368
365
362
360
359
357
356
355
355
354
354
352
352
352
352
351
353
359
367
385
413
453
498
536
550
535
501
454
409
378
355
342
334
333
335
338
340
343
344
345
346
348
350
351
352
353
355
356
358
359
361
362
363
365
367
368
370
372
375
377
378
380
382
385
387
390
393
397
400
404
407
410
414
417
421
425
429
432
435
437
438
438
438
436
434
430
425
419
411
402
392
383
375
366
358
351
344
338
333
328
325
323
321
320
319
319
318
318
319
319
319
320
321
322
323
324
325
326
327
328
329
330
331
332
332
334
334
335
336
336
337
337
337
338
338
339
340
341
341
341
341
341
342
341
341
341
341
342
342
342
343
343
343
342
343
343
343
344
344
344
344
345
345
346
346
346
346
347
347
347
347
348
348
349
349
350
351
352
352
353
355
357
361
365
369
370
371
370
370
369
368
368
369
369
368
366
362
359
357
355
354
352
351
351
350
349
349
349
349
348
347
348
352
360
372
394
428
471
515
543
544
519
480
432
393
366
347
336
332
332
335
337
339
341
342
344
345
346
347
348
349
351
352
354
355
357
359
360
362
363
365
367
368
370
373
375
377
380
383
385
388
390
393
397
399
403
407
411
415
419
423
426
429
432
435
436
437
436
436
434
432
427
422
416
408
399
390
381
372
363
355
348
342
337
333
329
326
324
322
321
321
320
320
320
321
321
322
323
324
325
326
327
328
329
330
331
332
333
333
334
334
335
335
336
337
339
339
340
340
341
342
342
342
343
343
343
343
343
343
343
344
344
345
345
345
345
345
346
345
345
346
346
346
347
347
348
348
348
348
348
348
348
348
349
349
349
349
349
349
349
350
350
350
350
351
351
352
353
354
355
355
356
356
358
361
365
369
372
375
376
376
375
374
373
372
372
372
371
368
365
361
359
357
356
354
353
352
352
351
351
350
350
349
349
350
354
362
376
401
438
482
526
551
548
522
482
434
397
370
352
341
337
336
338
339
340
341
342
342
344
345
345
347
348
349
351
353
353
355
356
358
360
362
363
365
368
369
372
374
376
378
380
383
385
388
391
394
398
401
404
408
411
415
418
422
426
429
431
433
433
433
432
430
428
424
419
413
405
397
389
381
372
364
355
348
342
337
332
328
326
324
321
320
319
319
319
319
320
320
321
321
322
323
325
325
327
328
328
329
330
331
331
332
333
334
335
335
336
336
337
337
337
338
338
338
339
340
340
341
341
341
341
341
342
342
342
343
343
343
343
343
343
343
343
344
344
344
344
345
345
345
346
346
346
346
347
347
348
348
349
349
349
349
349
350
350
350
350
351
350
350
351
352
353
353
354
355
356
358
361
365
369
372
374
373
373
372
372
371
371
371
370
368
364
361
358
356
354
352
350
349
349
348
348
348
348
348
348
347
349
354
364
381
409
450
496
536
552
539
508
463
417
385
361
345
335
333
333
335
337
338
340
340
341
342
343
345
345
347
348
349
351
352
353
355
356
358
360
361
363
365
367
369
372
374
377
379
382
384
388
391
394
398
401
404
408
412
415
419
422
425
427
429
431
432
431
430
429
425
421
415
409
401
392
384
376
367
359
351
345
339
334
329
326
323
320
318
317
317
316
317
317
318
318
318
319
319
320
322
323
325
326
326
327
328
329
331
331
332
332
333
333
334
334
335
335
336
337
337
338
338
338
339
339
339
339
340
341
341
341
342
341
341
342
343
343
344
344
344
344
344
344
345
346
346
346
346
346
346
347
347
347
347
347
348
348
348
349
350
350
350
350
350
351
351
352
352
353
353
354
356
357
357
356
357
359
361
364
368
371
373
375
375
375
374
373
373
372
373
372
370
366
364
362
359
357
356
354
353
352
352
351
351
351
351
350
350
353
358
368
385
414
454
499
537
550
533
499
453
408
377
354
340
334
332
335
338
341
343
345
345
347
348
349
350
351
352
354
355
357
359
361
363
364
365
367
368
371
373
375
377
379
381
383
385
387
390
393
397
399
402
406
410
415
419
422
425
429
431
434
436
438
438
438
437
435
431
427
421
415
407
398
388
379
371
364
356
349
343
338
334
330
328
326
324
323
322
322
322
322
323
324
325
326
327
328
329
330
331
332
333
333
334
335
336
337
338
339
339
340
341
341
342
343
343
344
344
344
345
345
346
345
345
346
346
346
346
346
346
346
346
347
348
348
348
348
348
348
349
350
350
350
350
350
350
351
351
352
353
353
353
353
354
355
355
356
357
357
357
357
358
358
359
359
359
361
362
365
368
372
374
377
378
378
378
377
377
376
376
375
374
372
368
366
363
362
360
358
357
357
356
356
355
355
355
354
354
356
361
367
381
404
439
481
521
544
537
509
469
422
386
362
346
339
336
338
341
344
346
347
349
350
351
353
355
356
357
358
359
361
362
364
365
366
368
369
371
373
375
377
379
381
383
385
387
389
391
394
397
401
404
408
411
414
417
420
423
427
429
431
434
435
435
436
435
434
431
427
422
416
408
400
392
384
376
368
361
354
349
343
339
335
332
330
328
327
326
326
326
327
327
327
328
328
329
330
331
332
334
334
335
336
336
337
337
338
339
340
340
342
343
343
344
344
345
345
346
346
346
347
347
348
348
348
348
348
348
349
348
348
348
348
348
348
348
348
349
349
349
350
350
350
351
351
352
352
353
354
353
354
354
354
354
354
355
355
356
356
356
356
357
357
358
358
358
359
359
360
361
364
368
371
374
375
376
375
375
374
373
373
372
373
372
370
367
364
362
360
359
358
357
356
356
356
355
354
354
354
354
357
363
372
391
420
459
501
534
545
530
499
457
414
383
362
351
345
343
343
344
345
345
346
346
347
347
348
349
351
352
353
355
356
357
359
360
362
364
365
367
369
371
373
374
376
378
379
382
384
387
389
392
395
398
401
403
407
410
413
416
419
422
424
426
428
429
429
429
426
424
420
415
409
401
394
386
378
371
364
356
350
345
341
337
333
331
329
328
327
326
326
326
326
326
328
327
328
329
330
331
332
333
334
335
335
336
337
336
337
339
339
341
342
342
343
343
343
344
344
345
345
345
346
346
346
346
347
347
347
347
346
346
347
347
348
348
348
348
347
348
348
348
348
348
349
350
350
350
351
351
351
351
352
352
352
352
353
354
353
354
354
355
354
355
355
356
356
356
356
357
357
357
358
358
359
359
360
362
366
369
371
373
375
375
375
375
374
374
373
373
372
369
365
362
361
360
358
356
355
354
354
353
353
353
353
352
353
356
363
374
394
426
466
506
535
541
522
489
444
404
376
359
349
345
344
344
344
344
345
345
345
346
347
347
349
350
351
352
354
356
358
359
360
361
363
365
366
367
370
372
374
375
377
379
381
383
385
388
390
394
396
399
403
406
409
412
415
417
420
422
424
425
426
426
425
423
420
417
413
407
399
392
384
376
369
362
354
349
344
339
336
333
330
328
326
325
325
325
325
325
325
325
325
327
327
327
328
330
330
331
332
333
333
334
335
337
338
338
339
340
341
341
341
341
341
341
341
341
342
341
341
342
343
343
344
344
344
344
344
345
344
344
344
344
345
345
346
345
346
346
347
347
347
348
348
348
348
349
348
348
349
349
349
349
350
350
350
350
350
350
351
351
352
354
354
355
355
356
358
360
363
367
370
372
373
374
373
373
372
372
371
371
370
366
362
359
356
354
353
351
350
350
351
351
350
349
349
348
348
350
356
364
380
405
443
486
524
542
529
496
450
403
371
349
335
328
327
330
333
335
337
338
340
341
343
345
347
348
349
350
352
354
355
357
359
360
361
363
364
365
367
369
371
373
375
378
381
383
385
387
390
392
395
398
401
406
409
413
416
420
422
424
426
427
428
428
427
425
422
419
413
407
400
391
383
375
367
359
351
344
338
332
328
324
321
319
318
317
316
316
316
316
316
317
317
319
321
321
322
322
323
324
324
326
327
328
328
328
330
330
331
331
332
332
332
333
334
334
334
335
334
334
333
333
333
334
334
334
334
335
335
335
335
336
336
338
337
338
338
338
338
339
340
341
341
341
342
342
342
342
343
343
344
344
345
346
348
349
352
355
359
362
364
365
365
364
363
362
361
362
362
360
357
353
351
349
347
346
344
343
342
342
342
342
342
341
341
342
345
351
361
378
407
445
485
516
524
504
467
420
378
350
332
322
319
320
323
327
331
333
335
336
338
339
341
341
343
345
347
348
350
352
353
353
355
358
359
361
362
364
366
368
370
372
374
377
380
382
384
386
389
392
397
400
403
406
409
412
415
417
419
420
420
420
419
418
415
412
409
404
398
390
383
375
367
359
352
346
340
335
331
328
325
323
321
320
319
318
318
319
319
319
320
322
323
324
325
326
327
327
328
329
330
330
331
332
333
334
334
335
336
335
336
336
337
338
338
339
339
339
339
339
340
340
340
340
340
340
341
341
343
343
343
343
342
343
343
344
344
345
346
347
347
348
348
348
348
350
351
351
351
353
353
354
357
362
367
370
371
372
371
371
371
371
371
370
370
367
365
361
359
357
356
354
353
352
351
351
350
351
351
351
350
351
357
365
378
400
433
474
513
537
537
513
475
427
389
364
349
341
339
340
342
344
344
345
346
348
349
350
352
353
354
356
358
359
360
361
364
365
367
369
371
373
374
376
378
380
382
383
386
388
391
393
396
400
402
405
409
412
415
417
420
423
425
427
429
430
430
430
430
429
426
423
419
414
409
402
394
387
379
372
365
358
353
348
344
340
338
335
334
334
333
333
332
333
333
334
334
334
335
336
337
337
339
340
340
342
343
344
344
344
345
346
346
346
346
347
347
347
347
348
348
348
348
348
349
349
350
350
350
349
349
349
350
351
351
352
352
352
353
353
354
354
355
355
356
357
357
359
360
360
362
365
369
373
377
379
379
380
379
379
378
378
378
377
375
372
369
365
363
361
359
358
357
358
357
357
356
356
355
354
355
358
365
376
396
427
466
507
538
548
530
494
446
405
376
358
347
342
342
345
346
347
348
349
351
352
354
356
357
358
360
362
363
365
367
369
370
372
374
376
378
380
382
384
386
389
390
392
395
398
401
404
407
409
412
415
418
422
424
427
429
432
434
436
438
438
438
437
436
434
430
427
421
415
407
399
391
383
375
367
360
355
349
345
341
339
335
333
333
332
331
331
331
332
332
333
333
334
334
334
335
336
337
337
338
338
338
339
339
340
340
341
341
341
342
342
343
342
343
343
342
343
343
343
343
343
343
343
344
344
344
344
344
345
345
345
345
345
346
346
347
347
348
349
350
351
351
353
354
356
359
364
368
372
373
374
373
372
370
370
370
369
369
366
362
359
356
354
352
350
349
349
348
348
348
348
348
347
347
347
349
357
368
387
416
455
498
532
542
523
485
435
392
362
342
331
327
329
334
337
340
342
343
345
346
348
349
350
351
353
355
356
357
359
359
361
363
365
367
369
371
374
377
380
382
383
384
386
388
390
393
396
399
402
405
408
411
414
418
421
423
426
427
429
430
431
431
430
427
423
418
412
404
396
388
380
372
364
357
351
345
340
336
333
330
328
327
325
325
325
326
326
326
327
328
329
330
330
331
332
334
335
335
336
337
338
338
338
338
338
338
339
341
342
341
341
341
341
341
341
341
341
342
342
343
343
343
342
342
343
344
345
346
346
347
348
349
350
351
354
358
363
367
368
369
368
368
368
367
366
366
366
363
361
358
354
352
350
349
347
346
346
346
346
345
346
346
345
345
347
352
360
376
402
440
482
519
532
515
480
431
386
356
337
327
322
323
327
332
336
339
342
345
346
348
350
351
353
354
355
357
359
360
362
364
366
367
369
371
373
375
376
378
380
382
384
387
390
392
394
398
402
405
408
412
415
418
420
423
426
428
429
430
431
431
430
429
426
423
417
410
403
396
387
379
370
362
354
348
342
338
334
330
328
327
326
325
324
324
324
325
326
327
329
329
330
330
331
332
333
334
335
336
336
337
337
338
339
340
340
341
341
341
341
341
341
342
342
342
342
342
342
342
342
342
343
344
345
346
347
348
349
351
354
359
363
366
367
367
367
366
366
365
364
364
363
361
358
355
352
350
349
347
346
345
345
345
345
345
345
344
344
344
347
353
362
381
411
450
492
521
525
501
463
414
375
350
335
327
325
328
332
336
340
343
345
345
346
348
350
351
352
353
354
356
358
359
362
362
364
366
368
370
371
372
375
377
379
380
383
386
388
391
394
397
399
401
404
407
410
413
416
419
421
424
425
425
426
424
423
421
418
414
408
403
396
388
381
374
367
359
353
347
342
338
335
333
331
330
329
328
327
327
327
328
328
328
329
330
331
332
334
334
336
336
337
337
338
340
340
340
341
341
342
342
342
342
341
342
342
343
343
344
344
344
344
344
344
345
345
345
345
346
347
347
348
348
349
350
353
357
362
365
367
367
367
367
367
367
367
367
366
365
361
358
355
353
351
349
347
346
346
346
346
345
346
346
345
345
348
353
362
380
409
448
489
522
533
516
484
437
396
369
351
341
337
337
339
340
341
341
342
343
343
345
346
347
348
350
351
352
354
356
358
360
362
364
366
367
369
371
374
376
378
380
382
385
387
390
392
395
398
401
405
408
411
414
417
420
422
425
428
429
430
429
428
426
423
419
413
407
399
391
383
375
368
360
353
348
342
337
333
330
328
325
324
323
323
323
324
324
325
326
327
328
329
330
331
331
332
333
333
333
334
335
335
336
337
338
339
340
340
341
341
341
341
340
341
340
341
341
341
341
341
341
341
342
342
342
342
342
343
344
346
346
347
347
349
350
352
355
359
364
367
369
370
369
368
366
365
365
365
364
361
358
355
352
350
349
347
345
345
345
344
345
345
345
345
344
344
345
350
358
372
397
433
476
516
535
524
491
445
397
364
342
330
324
323
327
331
335
338
340
341
343
345
347
347
348
350
352
354
355
357
359
360
363
364
366
368
370
371
373
375
378
380
382
385
387
390
392
396
398
401
404
408
412
414
417
420
423
425
427
429
430
429
429
427
425
420
415
410
403
395
387
378
370
362
355
349
343
338
334
331
327
325
325
325
325
324
324
324
325
326
326
327
329
330
331
332
333
333
333
333
333
334
335
335
336
336
335
335
336
337
337
337
339
339
340
339
339
340
340
340
340
340
340
340
341
341
342
342
342
342
343
342
342
343
343
343
343
344
345
346
347
348
349
350
351
351
353
357
362
366
369
370
370
369
368
368
367
366
366
366
363
359
357
355
354
352
350
349
348
348
347
347
347
347
346
345
346
348
354
363
380
407
445
489
526
540
523
488
440
395
363
342
331
325
325
328
333
337
340
342
343
345
346
347
349
350
351
352
355
357
358
359
361
363
365
366
368
371
373
375
377
379
382
384
386
388
390
393
395
399
402
404
408
412
415
418
421
423
426
428
428
429
429
428
427
424
421
416
411
404
396
388
380
372
364
356
350
344
339
335
332
330
328
326
326
325
325
326
326
327
327
328
328
329
330
331
331
333
334
335
335
335
335
336
336
336
337
338
338
339
339
339
340
339
340
340
340
341
341
341
341
342
342
342
343
343
342
342
342
343
343
343
343
343
343
344
345
346
347
348
348
348
349
350
353
356
360
365
368
370
371
370
369
369
368
367
367
367
365
362
359
357
355
353
351
349
347
347
347
347
347
347
347
347
347
348
351
359
372
396
432
476
519
542
534
505
460
410
373
350
335
328
327
330
334
338
340
342
344
346
347
349
351
352
353
355
356
358
360
362
364
365
366
368
370
372
374
376
379
381
384
386
387
389
392
395
397
400
403
407
409
412
416
420
422
425
427
428
429
430
431
430
428
424
421
416
409
402
395
387
380
371
363
356
349
344
338
334
330
326
324
323
322
322
322
323
323
324
324
324
325
327
328
330
331
331
333
334
335
335
336
336
336
337
337
338
339
339
339
339
339
340
339
340
340
340
340
340
341
341
342
342
342
342
343
343
343
344
344
345
345
345
346
346
346
347
347
348
348
349
350
351
351
352
352
353
354
356
359
363
367
369
371
371
371
370
369
368
367
367
367
364
361
359
357
355
353
352
351
351
350
349
349
350
350
349
348
349
352
359
369
390
421
461
502
533
539
519
484
436
394
366
348
338
335
335
337
339
340
341
342
343
345
345
347
348
350
351
352
353
355
357
359
360
361
363
365
366
368
370
372
375
378
380
382
384
386
389
391
394
397
400
404
408
411
415
417
419
421
424
427
427
428
428
426
424
421
417
412
405
398
390
382
373
365
358
351
345
339
334
330
327
324
323
321
320
319
319
320
320
320
321
322
324
324
325
326
328
329
330
331
332
333
333
334
335
336
337
338
338
339
338
338
339
340
340
341
341
341
341
341
342
342
343
343
343
343
343
343
343
343
344
344
344
345
345
345
345
345
346
346
346
348
349
350
350
351
351
353
354
357
360
365
368
371
371
371
370
369
368
368
368
368
366
362
360
357
355
353
351
349
348
348
347
346
346
346
346
346
346
349
354
362
378
404
442
485
523
540
528
496
451
404
372
350
337
330
329
331
334
337
339
341
342
343
345
346
347
349
350
351
353
354
356
358
359
361
362
364
366
367
370
372
375
376
379
382
384
386
388
391
394
396
399
403
407
410
413
416
419
423
425
427
428
428
428
427
426
424
421
415
409
402
393
385
376
369
361
354
347
341
336
332
329
326
324
322
322
321
320
320
321
322
323
323
324
324
326
326
327
328
328
329
330
331
332
333
333
335
336
336
336
337
337
337
338
338
339
339
339
340
341
341
342
341
341
342
343
343
343
343
342
342
343
344
345
344
344
345
346
347
347
347
347
347
348
350
351
351
352
353
356
359
363
368
371
372
371
371
371
369
368
368
367
367
364
360
358
355
352
350
349
348
347
347
348
347
347
347
347
347
347
349
354
363
381
409
450
495
532
542
524
488
438
392
362
342
330
325
325
329
333
336
339
341
342
343
345
347
349
351
351
352
354
355
357
358
360
361
363
365
367
368
370
372
374
377
380
382
385
387
390
393
396
399
402
405
409
412
416
419
423
426
429
431
432
432
432
430
428
425
420
414
406
398
390
382
373
365
356
349
344
338
334
331
328
326
324
323
321
321
321
321
322
323
323
324
324
325
326
327
328
329
329
330
331
332
333
334
335
336
337
338
338
338
338
339
340
340
341
341
342
341
342
342
342
342
343
342
343
342
343
344
344
344
343
344
344
344
344
345
346
347
347
348
348
348
348
349
350
351
352
353
354
356
359
363
367
370
371
372
372
371
370
370
369
370
370
367
364
360
358
356
354
354
352
352
351
351
351
351
351
351
350
351
353
359
369
387
415
455
498
532
540
521
485
437
394
365
347
337
332
332
335
339
342
344
346
347
348
349
351
352
354
356
358
360
361
362
363
365
367
368
370
372
374
376
378
380
382
384
386
390
393
396
399
402
405
408
411
414
417
421
424
427
431
433
435
436
436
435
434
431
428
424
419
412
405
397
389
381
372
364
356
349
344
339
335
333
330
329
328
326
325
325
325
325
326
327
328
329
330
331
332
333
334
335
336
337
337
338
338
339
340
341
342
343
344
345
345
346
346
345
346
346
346
346
347
347
347
347
348
348
348
347
348
348
348
349
349
349
349
349
349
350
351
351
351
352
352
351
352
353
353
354
355
356
356
356
357
359
362
366
370
373
376
376
376
375
374
373
372
372
372
371
369
366
364
362
359
358
356
355
354
353
354
353
353
352
352
352
353
358
367
382
409
447
491
531
550
539
508
464
416
383
359
345
338
336
338
341
344
346
347
348
349
349
350
352
353
355
356
358
360
362
363
364
366
368
370
372
374
376
378
381
383
385
386
388
391
393
396
398
402
406
409
412
416
419
423
425
428
431
433
434
435
435
435
433
430
426
421
415
408
400
392
384
375
367
359
352
346
341
337
334
330
328
327
325
324
324
325
325
324
326
327
327
328
329
330
331
332
333
334
335
336
336
337
338
338
339
340
341
341
341
342
342
342
342
343
344
343
343
343
344
344
344
344
345
345
345
345
345
345
345
344
345
345
346
346
347
347
347
347
348
348
348
349
349
349
350
349
350
350
350
351
351
352
353
354
354
355
355
356
356
358
362
366
370
373
374
374
373
372
372
371
372
372
371
370
366
363
360
358
357
355
353
353
352
351
351
351
351
350
350
349
352
358
368
387
418
459
504
541
551
533
497
449
406
376
354
342
335
334
336
338
341
342
343
343
344
345
347
349
351
353
354
354
356
357
358
360
362
364
365
368
370
372
374
376
379
381
383
386
388
391
393
396
399
402
406
409
413
417
420
423
426
428
430
431
432
432
432
430
427
423
418
413
405
397
389
381
372
364
357
350
343
338
334
331
328
325
324
323
322
321
322
322
323
323
324
326
327
327
328
329
330
331
331
333
334
334
335
336
337
337
337
339
339
339
340
340
340
340
340
341
341
341
341
341
342
342
342
342
342
342
343
342
342
342
342
343
343
344
345
345
345
345
345
345
346
347
347
347
348
349
349
349
349
349
350
350
351
352
352
353
354
356
359
362
366
370
372
373
372
372
372
371
370
371
370
370
368
364
360
357
355
353
351
350
350
349
349
349
349
349
348
347
348
351
358
368
389
421
465
510
543
549
527
490
440
399
370
350
339
333
332
334
337
339
340
342
343
344
345
347
349
350
352
353
354
356
357
359
360
362
364
366
367
370
371
374
376
379
382
384
387
390
392
395
398
401
405
408
412
415
419
422
426
428
431
432
433
434
434
433
431
429
425
419
412
405
396
387
379
371
363
355
349
343
338
334
330
327
324
323
321
321
321
321
321
322
322
323
324
325
326
327
328
329
330
331
331
331
332
334
335
335
335
336
336
336
337
338
339
339
339
340
340
340
341
341
340
341
340
341
341
341
342
342
343
343
342
343
343
344
345
345
345
345
346
346
347
347
347
347
348
348
347
348
348
349
349
350
352
353
353
354
355
357
360
364
368
372
374
374
374
373
372
371
370
370
371
370
366
363
360
358
355
353
351
350
350
349
349
350
349
349
348
348
348
353
361
376
401
438
484
527
550
544
513
469
420
385
361
343
334
331
332
336
339
341
342
343
344
346
347
349
351
352
353
355
356
358
359
361
363
364
366
368
369
371
373
375
378
380
382
385
388
390
393
396
400
404
407
410
414
417
420
423
427
430
432
433
435
435
434
432
430
427
422
416
409
401
393
384
375
367
359
352
346
340
335
331
328
326
324
322
322
321
321
322
322
322
324
325
326
326
327
327
328
329
330
331
331
333
333
334
334
335
337
337
337
338
339
339
339
339
340
340
340
340
340
340
341
341
341
341
341
342
342
342
342
342
342
343
343
343
344
344
345
345
346
346
347
347
347
348
348
349
349
350
350
351
351
352
353
354
356
360
364
368
371
372
372
372
372
371
371
370
369
369
367
364
360
357
355
353
351
350
349
349
349
348
349
349
348
348
348
351
358
368
390
421
464
509
542
548
526
487
437
396
367
347
335
330
331
333
335
338
340
341
343
344
345
346
347
348
350
352
354
356
358
359
361
362
364
366
368
370
372
375
377
379
381
384
387
390
393
396
398
401
405
409
412
416
420
424
426
429
431
433
434
435
435
434
432
428
424
419
412
405
396
387
378
369
361
353
347
341
336
331
328
326
324
323
321
321
320
320
320
321
322
323
323
324
325
326
328
329
329
330
331
333
333
334
334
335
335
336
337
337
338
338
338
339
339
340
340
340
340
340
340
341
342
341
341
341
342
342
342
342
343
343
343
343
344
344
345
345
345
346
346
347
347
347
347
348
348
349
350
350
352
351
352
353
354
358
362
366
370
372
373
373
372
372
371
371
371
371
369
366
362
359
357
354
352
351
350
350
350
350
349
348
347
347
347
348
352
360
374
399
435
480
524
548
544
514
472
422
386
360
343
333
330
331
335
338
340
342
344
345
346
348
349
351
352
353
355
357
359
361
362
364
366
368
369
371
373
375
377
380
383
384
387
389
392
395
399
402
405
409
412
416
420
423
427
430
432
435
436
437
437
437
435
432
429
425
419
411
403
394
385
376
367
359
352
346
340
335
331
328
325
323
321
321
321
321
321
321
322
322
323
324
325
326
327
328
329
329
330
331
332
332
333
334
335
335
336
337
337
337
337
337
338
339
339
340
341
341
341
342
342
341
341
341
342
342
342
343
343
343
343
344
344
345
346
346
346
345
346
346
346
347
347
347
348
348
348
349
350
351
351
352
352
353
354
356
360
364
368
370
372
373
372
372
370
369
369
368
369
367
363
360
358
355
353
351
350
350
349
349
349
348
348
347
346
347
349
355
365
384
414
456
502
538
550
531
495
447
402
372
350
337
331
331
333
336
338
340
341
342
343
345
346
348
350
352
352
353
353
354
356
357
358
360
362
367
374
380
384
381
376
377
380
385
391
393
396
396
398
406
408
407
400
400
408
414
417
410
404
399
396
405
415
424
438
445
437
429
417
409
402
396
389
375
351
344
336
337
331
323
319
321
325
320
324
327
328
327
333
336
324
298
299
317
327
334
331
330
327
332
341
332
324
312
305
318
332
347
347
346
338
324
331
335
338
343
351
348
352
351
340
335
336
333
342
346
345
348
350
356
354
353
351
361
365
351
325
306
308
311
323
326
327
328
327
329
328
333
342
356
350
354
361
369
358
348
345
335
336
338
345
351
360
355
357
351
350
348
347
343
343
342
333
322
325
317
309
313
307
304
306
322
332
334
332
327
327
323
330
332
344
365
400
446
479
501
497
488
462
420
379
352
335
329
325
321
313
314
319
318
318
324
325
325
344
348
362
365
370
372
376
379
376
376
376
379
378
374
374
374
382
387
386
393
399
400
406
400
411
420
415
405
406
409
423
430
438
421
415
416
413
416
419
421
421
423
423
420
421
417
398
378
366
377
371
363
353
341
338
341
327
321
321
324
332
327
323
335
331
317
322
325
314
321
324
329
329
321
324
323
322
318
319
315
319
328
338
339
342
335
330
338
342
339
337
331
331
340
327
325
328
326
326
329
330
323
318
325
331
330
332
339
334
334
332
331
325
331
335
341
340
343
344
338
338
350
359
364
360
355
348
338
336
332
339
350
358
352
341
344
344
332
325
328
333
335
333
332
333
332
326
323
320
322
329
334
340
354
376
404
444
491
518
515
486
452
401
365
337
323
315
315
323
314
319
332
325
330
330
333
333
328
318
319
328
326
328
336
335
325
323
317
313
311
313
321
327
322
311
307
311
319
324
330
333
333
335
335
335
334
336
339
340
336
355
373
395
418
444
440
434
435
437
437
439
424
419
412
399
394
381
368
352
351
360
354
340
330
327
328
329
337
345
337
329
324
330
342
346
344
341
335
329
338
334
331
338
329
329
323
309
292
288
291
303
305
310
324
329
324
327
330
325
309
303
294
289
301
313
307
290
281
276
275
270
266
249
