346
343
341
339
337
336
336
336
335
335
336
335
335
334
334
334
334
334
334
335
335
335
336
336
336
336
336
336
336
335
335
335
334
332
331
329
327
324
322
320
318
315
312
310
308
306
306
307
309
311
315
319
323
327
330
333
336
338
339
340
341
341
340
340
340
340
339
338
338
338
336
336
335
335
334
333
332
332
332
331
331
331
331
330
331
331
331
331
331
331
331
331
331
331
330
330
330
330
330
330
330
331
331
331
331
331
331
331
331
331
331
331
330
331
331
331
330
330
330
331
330
330
331
331
331
332
332
333
333
332
333
333
334
335
337
338
338
335
333
330
328
325
325
325
326
326
325
325
324
323
323
325
326
327
329
330
332
333
333
334
333
332
331
332
335
340
350
366
388
410
423
415
383
335
280
235
211
207
220
245
275
305
330
348
360
365
364
361
357
352
348
344
341
339
338
336
336
336
335
334
334
335
336
334
333
332
332
332
332
334
336
336
336
336
336
336
335
335
336
336
335
335
335
334
332
331
329
328
325
323
321
319
316
312
310
308
307
306
307
309
312
315
319
323
327
330
333
335
337
338
339
340
341
340
340
340
340
339
338
337
337
336
335
335
335
334
333
333
333
333
332
332
332
331
331
330
330
330
330
330
331
331
330
330
330
330
330
330
330
330
330
330
331
331
331
330
331
331
330
330
330
331
331
331
331
332
332
332
332
332
332
331
330
330
330
330
330
330
331
331
331
331
331
331
331
331
331
331
330
330
331
331
332
331
332
332
332
333
335
336
337
337
336
334
332
329
327
326
326
326
326
326
325
324
324
324
325
325
326
328
330
330
331
332
332
332
332
331
332
333
337
344
356
373
395
415
423
407
370
320
268
228
209
209
226
252
282
311
334
351
360
363
362
359
354
349
346
343
340
338
338
338
337
336
335
335
334
333
333
333
334
334
334
335
335
334
334
334
335
335
334
335
335
336
336
336
336
336
335
334
333
331
329
328
326
324
321
319
317
314
311
308
307
307
307
309
312
315
318
321
325
329
332
334
337
339
340
340
341
341
341
340
340
339
339
338
337
336
335
334
333
333
334
333
333
333
333
332
331
331
331
331
331
331
332
331
331
331
331
330
330
330
330
330
330
330
330
330
330
330
331
331
331
331
331
331
331
330
331
331
331
331
331
331
331
331
331
332
332
331
331
331
331
331
331
331
331
330
330
330
331
331
331
331
331
331
331
331
331
331
330
330
331
331
330
331
331
331
331
331
331
331
330
330
330
331
331
331
331
332
332
332
332
333
332
331
331
331
332
333
335
337
337
336
335
333
330
328
327
326
326
326
325
324
323
323
323
324
326
327
328
330
332
333
333
334
334
333
332
332
335
340
349
365
386
409
423
420
393
348
295
246
216
205
213
233
262
292
318
338
352
359
361
359
357
354
350
347
344
342
340
338
337
336
336
335
335
335
336
335
335
335
334
334
334
334
335
334
334
334
335
336
335
336
336
336
335
335
335
334
333
332
331
330
328
325
324
322
320
317
315
313
311
309
308
309
310
311
314
317
321
324
327
331
334
336
337
339
340
340
340
340
340
340
339
339
338
337
336
336
335
335
334
333
334
333
333
332
332
332
331
331
331
331
331
331
331
332
331
331
331
331
330
330
330
330
330
330
331
331
330
330
330
330
330
329
330
330
331
331
331
332
332
332
331
331
331
331
331
331
331
331
331
331
331
331
330
331
332
332
332
332
332
332
331
330
331
331
330
330
330
331
331
331
331
331
331
330
330
330
330
330
330
331
331
331
331
332
332
331
331
331
331
330
330
331
332
332
332
332
332
332
333
334
336
337
336
334
332
329
327
326
326
326
326
325
324
323
322
324
325
326
328
330
331
331
332
333
333
332
332
332
335
339
348
362
383
406
422
422
399
355
302
251
218
205
210
230
258
288
316
337
352
360
362
361
358
354
350
346
343
341
340
338
338
337
337
336
336
336
335
334
334
334
334
334
334
334
335
335
335
335
335
335
334
335
336
336
336
336
336
335
334
332
332
330
328
327
325
324
321
318
316
313
310
308
307
307
308
309
312
316
319
322
326
330
332
335
337
339
340
340
341
341
341
340
339
339
338
337
337
336
336
335
335
334
334
333
333
332
332
332
331
331
332
332
331
331
331
331
330
330
330
330
330
330
331
331
330
330
331
331
331
330
331
331
331
330
331
331
331
330
330
331
331
331
331
331
331
331
330
331
331
331
331
332
332
331
331
331
331
331
331
331
331
331
330
330
330
330
330
330
331
331
331
331
332
332
331
331
331
331
330
330
330
331
330
330
330
331
331
330
331
331
331
331
332
332
332
332
332
334
336
337
337
336
335
332
330
328
327
326
326
326
326
325
323
322
323
324
324
326
328
330
331
332
334
334
333
333
333
335
339
346
360
379
402
420
422
401
359
306
255
220
206
209
228
256
287
315
338
353
362
364
363
360
355
351
346
343
341
338
337
336
336
336
335
335
335
335
334
334
335
335
334
334
334
334
334
334
335
335
334
334
335
336
336
335
336
336
335
334
334
333
332
330
328
326
324
321
318
316
314
311
309
308
307
307
309
311
314
317
321
325
329
332
334
336
338
339
339
340
341
341
340
340
340
339
338
337
337
336
335
335
335
334
334
333
333
332
332
331
331
332
332
331
331
331
331
330
330
330
330
330
330
331
331
330
330
331
331
330
330
330
330
330
330
330
330
330
330
331
331
331
331
332
332
331
330
331
331
331
331
331
331
331
331
330
331
331
331
331
331
332
331
331
331
331
331
331
331
331
331
330
330
331
331
331
331
331
331
330
330
331
331
331
331
331
332
331
330
331
332
331
331
331
333
334
335
337
338
337
335
332
330
328
327
326
326
326
326
324
323
323
323
323
325
326
328
329
331
332
333
333
333
333
333
336
342
353
370
391
413
425
415
382
333
280
235
209
204
217
241
271
302
328
348
359
364
364
362
357
352
348
344
341
339
338
337
337
336
336
336
336
335
334
334
334
333
334
334
334
334
334
335
335
335
335
335
336
336
335
335
335
335
335
334
334
334
332
331
330
328
325
323
321
318
315
312
310
309
308
307
308
310
312
315
318
322
326
329
332
335
337
338
339
340
341
341
340
340
340
339
338
338
338
337
335
335
334
334
333
332
333
332
331
331
332
332
332
331
332
332
331
331
331
331
330
330
331
331
331
330
330
330
330
330
330
331
331
331
331
331
331
330
331
331
331
331
330
331
331
331
331
331
331
331
331
331
331
331
330
331
331
331
331
331
332
332
331
331
332
331
330
330
331
331
330
330
331
331
331
331
332
332
332
332
332
332
333
334
337
338
338
337
334
332
329
327
325
325
326
326
326
325
324
323
323
323
325
325
326
329
330
332
332
333
333
333
334
338
344
355
371
392
413
423
412
378
330
276
232
209
206
219
244
274
305
330
348
359
364
365
361
357
352
348
344
341
339
338
337
336
335
335
335
335
335
335
334
334
333
334
334
334
334
335
335
335
335
335
336
335
334
334
335
335
335
335
335
335
334
332
331
329
327
324
322
320
317
314
312
310
308
307
307
308
310
312
316
320
323
326
330
333
335
337
339
340
341
341
341
340
340
339
338
338
338
337
337
336
336
335
334
334
334
333
333
332
332
332
331
331
331
331
330
330
331
331
330
330
330
331
330
330
331
331
331
330
331
331
331
330
331
331
331
330
330
331
331
331
331
332
332
331
331
331
331
331
330
331
331
331
331
331
331
331
330
331
331
331
331
332
333
333
333
332
332
332
331
332
334
336
337
338
337
335
332
329
328
327
326
326
326
325
324
322
322
322
323
324
326
328
330
331
332
334
334
333
332
334
337
343
353
370
391
412
423
414
381
331
276
231
208
205
219
244
275
306
332
351
362
367
366
362
358
352
347
343
341
338
337
336
336
335
335
334
334
335
335
335
335
335
335
334
334
334
334
334
333
334
335
335
335
336
336
336
336
335
335
334
333
332
332
330
328
327
325
323
320
318
315
312
309
308
307
307
308
309
312
316
319
323
326
330
333
335
338
340
341
341
342
342
341
340
339
339
338
337
337
337
336
335
334
334
333
333
332
332
332
332
332
332
332
331
331
331
331
331
331
330
331
331
330
330
330
330
330
330
331
330
330
330
330
330
330
330
331
332
331
331
332
332
332
331
331
332
332
331
331
332
332
332
333
336
338
339
338
337
335
331
329
327
326
325
325
325
324
323
322
322
324
324
326
327
330
330
331
332
333
333
333
333
336
340
347
359
378
399
417
421
401
361
310
258
221
206
210
228
256
287
316
339
355
364
366
364
360
355
350
346
342
341
339
337
337
336
336
335
335
335
335
334
334
334
334
334
334
334
335
334
334
334
335
335
335
336
336
336
336
336
336
335
334
333
332
331
329
327
325
323
320
317
315
313
310
308
307
307
308
309
311
315
319
323
326
330
333
335
337
339
340
341
341
341
341
340
339
339
339
338
337
336
336
335
334
334
334
334
333
332
332
332
332
331
331
331
331
330
331
331
331
330
330
330
330
330
330
331
331
331
331
331
331
330
330
331
331
330
331
332
332
332
332
333
333
332
332
332
333
335
337
339
338
336
333
330
328
326
325
325
325
324
323
322
322
323
324
325
327
329
330
331
332
333
333
332
333
334
337
341
350
365
385
405
421
419
392
347
294
245
215
205
213
235
264
295
322
343
357
363
364
363
359
354
349
345
343
341
338
337
336
336
335
335
335
335
335
335
335
335
334
334
334
334
334
333
334
335
335
335
336
336
336
336
336
336
336
335
334
333
332
330
328
326
324
321
319
316
314
310
308
307
306
307
308
310
314
317
321
325
329
332
335
337
339
340
341
341
342
342
341
340
340
339
338
337
336
336
335
334
334
334
333
332
332
332
332
331
331
332
332
331
331
331
331
331
331
331
331
330
330
330
330
330
330
330
330
330
330
331
331
331
331
331
331
331
331
331
331
331
331
332
332
332
332
332
333
334
336
338
339
339
337
333
330
328
325
324
325
326
325
323
322
322
322
323
325
327
328
330
331
332
333
333
333
334
334
336
339
346
358
374
396
416
423
408
370
318
265
225
206
207
224
251
282
311
336
353
362
365
364
361
356
351
347
344
341
338
337
336
336
335
334
334
335
335
335
336
336
335
335
335
334
334
333
334
335
335
335
335
335
335
336
336
337
336
335
335
334
333
331
329
327
324
322
320
318
315
312
310
308
307
307
307
309
312
315
319
323
327
331
333
336
338
339
339
340
341
341
340
340
340
340
339
338
338
337
336
335
335
334
333
332
332
332
332
331
331
332
331
331
331
332
332
331
330
330
330
330
330
331
331
331
330
331
331
330
330
330
330
330
330
331
331
331
331
331
331
331
331
331
332
332
332
333
333
334
335
337
339
339
338
336
333
330
327
325
325
325
325
324
323
322
322
323
325
327
328
329
330
332
332
332
333
333
333
334
336
339
345
356
373
395
414
420
402
363
312
260
222
207
211
230
257
288
318
341
356
365
367
365
361
356
351
346
342
339
338
336
335
334
334
334
334
334
334
335
335
335
335
335
335
334
334
334
334
334
334
335
335
335
336
336
336
336
335
335
334
333
332
331
330
327
325
322
320
316
312
310
308
307
306
307
309
312
314
317
321
324
327
330
334
337
339
340
341
342
341
341
340
340
339
338
338
338
337
336
335
334
334
334
333
334
333
332
332
332
332
331
331
332
331
331
330
330
331
330
330
330
331
331
330
331
331
331
330
330
331
331
331
331
331
331
331
330
331
331
331
331
331
332
332
332
332
333
332
332
332
333
334
335
337
338
338
336
333
331
328
326
325
325
326
325
324
323
324
324
325
326
327
328
329
331
332
333
333
333
333
333
333
336
342
352
367
387
408
419
410
378
331
280
236
212
209
224
249
279
308
333
350
361
365
365
362
356
351
347
343
339
337
336
335
335
334
335
335
334
334
334
334
334
334
334
334
334
334
334
335
335
334
334
335
335
335
335
336
336
336
335
335
334
332
331
329
328
325
323
321
319
316
313
311
309
308
308
308
310
312
315
319
323
326
329
332
335
337
338
339
340
341
340
340
340
340
339
338
338
337
336
336
335
335
335
334
333
333
333
332
332
332
331
331
330
331
331
331
331
331
332
332
331
331
331
330
330
330
330
330
330
330
330
331
331
331
331
331
331
331
331
332
331
331
331
331
331
331
331
331
331
331
331
331
331
331
331
331
332
331
332
332
332
331
331
332
333
335
337
338
338
336
334
331
329
327
325
325
326
326
325
325
324
323
324
325
326
327
328
329
330
331
332
332
333
332
332
334
339
347
360
379
401
420
422
402
361
311
260
223
208
211
229
256
285
314
336
350
359
362
361
358
354
350
346
343
341
340
339
337
336
336
336
335
335
335
335
334
334
335
335
335
334
334
334
334
334
334
334
335
335
335
336
336
336
335
335
334
333
331
330
328
325
323
321
319
316
314
312
310
309
309
310
311
314
316
320
323
325
328
331
334
337
338
340
340
340
339
339
339
339
338
338
338
337
337
336
336
335
334
333
333
333
332
331
332
332
332
331
332
332
331
330
330
330
330
330
331
331
331
330
330
330
330
330
330
330
331
331
331
331
331
330
330
330
331
331
330
331
332
331
331
331
332
332
331
331
331
331
331
331
332
331
330
330
330
330
330
330
330
331
331
331
332
332
332
331
331
331
331
330
330
331
331
331
332
332
332
332
331
332
333
335
337
338
338
336
334
331
329
327
325
326
326
327
325
324
323
322
322
323
325
327
328
331
333
334
334
333
333
332
332
335
341
350
365
386
408
424
421
394
349
296
247
215
205
213
233
261
291
318
339
353
360
362
361
357
353
349
346
343
341
340
339
338
337
337
336
335
335
335
335
335
334
334
334
334
334
334
334
334
334
334
335
335
335
335
336
336
335
334
334
334
333
331
330
329
328
325
324
322
320
317
315
313
311
310
309
310
311
313
316
318
322
324
327
331
334
336
337
339
340
341
340
341
341
340
339
338
338
337
336
335
335
335
334
333
333
333
332
331
332
332
332
331
332
332
332
331
331
331
330
330
330
330
330
330
330
331
331
330
330
331
331
331
330
331
331
330
330
331
331
331
331
331
331
331
332
332
332
332
331
331
332
331
331
331
331
331
331
331
331
331
331
331
331
331
331
331
331
331
331
330
330
331
331
331
331
332
332
332
332
333
332
332
332
334
336
337
337
337
336
333
331
328
327
326
326
326
326
325
323
322
323
323
324
325
328
329
330
331
332
333
333
333
333
334
337
343
354
371
392
412
424
416
382
334
280
235
210
205
217
241
271
301
326
346
358
363
363
361
357
352
347
344
342
339
338
338
337
336
336
336
336
335
335
334
335
335
335
334
334
334
334
334
334
334
335
334
335
336
335
335
335
335
334
334
334
333
332
331
329
328
326
323
321
320
317
314
312
310
310
309
309
310
312
315
318
322
325
329
332
335
337
339
340
340
341
341
340
340
340
339
338
337
337
337
336
335
335
335
334
333
333
333
332
331
331
331
331
330
330
331
330
330
330
331
331
331
331
331
331
330
330
330
330
330
330
331
331
331
331
332
332
332
331
331
331
331
331
331
331
330
330
330
331
331
331
332
332
332
332
331
331
331
331
330
331
331
331
331
331
331
331
330
331
331
331
331
332
332
332
332
333
335
337
339
339
338
336
332
330
327
326
325
325
325
325
324
323
323
323
324
324
326
327
329
330
332
333
334
333
333
334
336
340
347
360
378
399
417
420
398
356
304
253
219
206
212
232
261
292
321
343
358
365
366
363
359
354
348
344
341
339
337
336
336
336
336
336
336
335
334
334
334
334
334
333
333
334
334
334
334
335
335
335
335
335
336
336
335
336
335
335
334
334
333
331
329
327
326
323
321
318
316
314
311
310
309
308
309
310
312
315
318
321
325
329
332
334
336
338
339
340
341
341
341
340
340
339
339
338
337
337
336
335
334
334
334
333
333
333
333
333
332
332
331
331
330
330
330
330
330
330
331
331
331
331
331
331
330
330
331
331
331
331
331
331
331
330
331
331
331
331
332
332
331
331
331
331
331
331
330
330
330
330
330
331
331
332
332
333
333
332
332
332
332
332
333
336
338
338
338
336
334
331
328
326
326
325
325
326
325
324
323
323
324
325
326
327
329
331
332
332
333
333
332
332
333
337
342
352
368
389
410
421
413
382
335
281
236
212
207
219
243
273
303
328
347
359
364
364
362
357
353
348
344
341
339
337
336
336
336
336
335
335
335
335
334
334
334
334
334
334
334
334
333
333
334
334
335
335
336
336
336
336
336
336
335
334
333
332
330
328
326
325
322
320
318
316
314
311
310
309
309
309
311
313
317
320
323
327
331
333
335
337
339
339
340
340
341
341
340
340
340
339
338
337
336
335
334
334
334
333
333
333
332
332
332
331
331
332
332
331
331
331
331
330
330
330
330
330
330
331
331
330
330
331
331
330
330
331
331
331
330
330
331
331
331
331
332
331
331
330
331
331
331
331
331
332
332
332
332
332
331
330
331
331
331
332
332
332
332
332
333
335
336
338
339
338
336
332
329
327
326
325
325
326
326
325
324
323
323
323
324
326
328
329
330
332
333
333
333
333
334
336
340
348
362
381
402
419
422
401
360
308
257
221
206
210
228
256
286
313
336
352
360
363
362
359
355
350
347
344
341
338
337
337
336
335
335
335
335
335
335
335
335
334
334
334
334
334
334
335
336
336
335
335
335
335
335
335
335
335
334
333
333
332
331
329
328
327
325
323
320
318
315
312
310
309
308
308
310
312
315
318
322
325
329
331
334
336
338
339
340
341
341
340
340
340
339
338
337
337
337
336
335
334
334
333
332
333
333
333
332
332
332
332
331
331
331
331
331
330
330
331
331
330
331
331
331
330
331
331
331
331
331
331
330
330
330
331
331
331
331
331
332
332
332
332
332
331
331
332
332
331
331
331
330
330
330
330
331
331
332
332
333
332
332
333
334
336
338
339
339
337
333
330
328
326
325
325
326
326
325
324
323
323
323
324
325
327
329
330
331
332
333
333
333
333
335
339
345
357
374
396
416
424
410
373
323
270
228
207
206
222
247
278
307
332
349
359
363
363
360
356
351
347
344
342
339
338
337
337
336
336
336
336
335
335
335
335
334
334
334
334
334
334
334
335
335
335
335
336
336
336
336
336
336
335
334
333
333
331
330
328
327
324
322
320
318
316
313
311
310
309
309
310
312
314
317
320
324
327
330
333
336
338
339
340
341
342
341
341
340
340
338
338
337
337
336
335
334
334
333
332
333
333
333
332
331
332
332
331
331
332
332
331
331
331
331
331
330
330
330
330
330
330
331
330
330
330
331
331
331
331
331
331
331
331
331
332
332
332
332
332
331
330
330
331
330
330
331
332
333
333
333
333
333
333
333
336
337
338
337
336
334
331
328
327
326
325
326
327
326
324
323
322
323
324
325
327
329
331
331
332
333
333
333
333
335
338
344
354
370
391
411
423
415
383
335
280
235
210
205
217
241
271
302
327
347
359
364
364
362
358
354
349
345
342
339
337
336
335
335
335
335
336
336
335
335
335
335
334
334
334
334
334
334
335
335
335
335
334
335
335
334
334
334
334
334
334
334
333
332
329
327
325
323
320
318
316
314
311
309
309
308
308
310
313
316
320
323
327
331
333
335
337
339
340
340
341
341
341
340
340
339
338
337
336
336
336
335
335
334
334
333
332
332
332
331
331
331
331
331
330
330
331
331
331
331
332
332
331
331
331
330
330
330
330
330
330
331
332
332
331
331
332
332
331
330
331
331
331
330
331
332
332
331
332
333
333
333
332
333
333
334
335
337
338
338
337
335
332
329
326
325
325
325
325
325
324
323
322
323
324
325
326
328
330
332
333
333
334
334
333
333
336
341
348
361
380
401
418
419
397
353
300
248
216
205
212
233
263
295
323
345
359
367
368
365
360
355
350
345
342
340
338
336
335
335
335
335
334
334
334
333
333
333
333
334
334
334
335
335
334
334
335
335
335
335
335
335
335
335
335
335
334
333
332
331
329
327
325
323
321
318
316
314
312
310
308
308
309
310
312
315
319
322
326
330
333
336
337
339
341
341
341
342
342
341
340
339
338
337
336
335
335
335
334
334
334
334
332
332
331
331
331
331
332
332
332
331
332
331
331
330
330
330
330
330
330
331
330
330
330
331
331
331
331
331
331
331
331
331
331
331
331
331
331
331
331
332
333
332
332
332
333
333
334
335
338
339
338
336
334
332
328
326
325
325
325
325
325
324
323
323
324
325
326
327
329
331
332
332
333
333
333
332
334
337
342
351
366
386
407
420
416
388
341
288
240
212
205
216
239
270
301
327
347
360
366
366
363
359
354
349
345
341
339
337
336
335
335
335
334
334
334
335
334
334
334
335
334
334
334
334
334
334
335
335
335
335
335
335
335
335
335
335
335
333
332
331
329
327
326
324
323
321
318
316
314
312
310
309
309
310
311
314
317
320
323
326
330
333
335
338
340
341
341
341
341
341
340
339
339
338
338
337
336
335
334
334
333
333
333
332
332
332
332
331
331
332
332
331
331
331
331
330
330
330
330
330
330
330
331
331
331
331
331
331
331
331
331
331
331
331
332
331
331
331
331
331
331
331
332
332
332
332
332
332
333
333
335
338
339
339
338
335
332
329
327
326
325
325
325
325
324
322
322
323
324
325
326
328
330
332
333
333
334
334
333
333
335
339
346
358
377
399
417
423
406
366
315
262
224
207
209
226
253
284
312
335
351
360
363
362
359
355
351
347
344
342
340
338
337
337
336
336
335
335
335
335
334
335
334
334
333
333
334
334
334
334
334
335
335
335
336
336
335
336
336
335
334
333
333
331
329
327
325
324
321
319
317
315
312
310
309
309
309
310
313
316
319
322
326
330
333
335
336
338
340
340
340
341
341
340
340
340
339
338
337
337
336
335
334
334
333
333
332
332
332
332
331
331
331
331
330
331
331
331
331
331
331
331
330
330
331
331
331
330
330
331
330
330
331
331
331
331
331
331
331
330
331
332
332
332
331
331
331
331
330
331
331
332
332
333
333
333
333
334
335
337
338
338
337
335
332
329
327
326
325
325
326
326
324
323
323
323
324
325
327
328
330
331
332
333
333
333
333
334
335
339
346
359
378
400
418
423
405
364
311
259
222
205
208
227
254
285
313
337
353
361
364
363
360
355
350
346
343
341
339
338
338
337
337
336
335
335
334
334
335
335
334
334
334
334
334
334
335
335
335
335
335
335
335
334
334
334
334
334
334
334
333
332
330
329
327
324
322
319
317
314
312
310
310
309
309
311
313
316
319
322
326
329
331
334
336
338
339
340
341
341
341
341
341
340
339
337
337
336
336
335
334
334
333
332
332
332
331
331
331
332
332
332
331
331
331
331
331
331
331
330
330
330
330
330
330
331
331
331
331
331
331
331
331
330
331
331
331
331
331
332
331
331
331
331
331
331
331
331
331
331
332
332
332
331
332
332
332
331
332
333
334
336
338
339
339
337
334
331
328
326
325
325
325
325
324
323
323
322
323
324
326
328
329
331
333
334
334
334
333
333
333
337
342
352
367
388
410
424
418
387
339
285
237
210
204
216
240
269
300
327
346
358
364
364
361
357
352
348
345
342
340
339
338
336
336
336
336
335
335
335
335
334
334
334
334
334
334
334
335
335
334
334
335
335
335
335
335
335
335
334
334
333
332
331
330
329
327
325
323
321
319
316
314
312
310
309
309
310
312
314
317
321
324
327
330
333
336
337
338
340
341
341
341
341
340
340
338
338
337
337
335
335
334
334
333
333
333
333
332
332
332
332
331
331
331
331
331
331
331
331
331
331
331
331
331
330
331
331
331
331
331
331
331
331
331
331
331
331
330
331
331
331
331
331
332
332
331
331
332
332
332
332
333
333
332
332
332
333
335
337
339
339
337
335
332
330
327
325
325
325
325
325
324
323
322
322
324
325
327
328
329
331
332
332
333
333
333
333
335
339
346
358
375
398
417
423
406
367
316
263
224
206
208
226
253
284
313
337
353
362
365
364
360
355
351
347
343
340
339
337
336
335
336
336
335
335
335
335
335
334
334
334
334
334
334
334
334
334
335
335
335
335
335
335
336
336
335
335
334
333
332
331
330
327
325
323
321
318
316
314
312
310
309
308
309
311
312
315
319
323
326
329
333
335
337
338
339
340
341
341
341
341
340
339
338
337
336
336
335
335
334
334
333
334
333
333
332
332
332
331
331
331
331
331
330
331
331
331
330
330
331
330
330
331
331
331
331
331
331
331
330
330
331
331
331
331
332
332
331
331
331
331
331
331
331
332
332
332
332
333
332
332
332
333
334
336
338
339
338
336
333
330
328
325
324
324
325
324
323
323
323
323
324
326
327
329
330
331
332
333
333
333
333
333
334
338
344
355
371
392
412
422
410
374
324
271
228
208
208
224
251
281
311
336
353
363
367
366
362
356
351
346
343
339
337
337
336
336
336
336
335
334
334
334
334
334
334
335
335
335
334
334
334
334
334
334
335
335
335
336
336
336
335
334
334
333
332
330
329
328
326
323
322
320
317
314
312
310
309
308
309
310
312
314
317
321
325
329
332
336
338
339
340
340
341
340
340
340
340
340
339
338
337
336
335
335
335
334
333
333
333
333
332
332
332
332
331
330
331
331
331
331
331
331
330
330
330
330
330
330
330
331
331
331
331
332
332
332
332
332
331
331
330
331
331
331
331
331
331
331
331
332
332
332
332
333
334
335
337
338
339
338
335
332
330
327
326
325
326
326
324
323
322
322
322
323
325
327
328
329
331
332
333
333
334
334
334
335
339
346
357
374
396
416
422
406
368
317
264
225
207
209
227
253
283
313
337
352
361
364
364
360
355
351
347
344
340
338
337
336
335
335
335
335
335
335
335
335
334
334
334
334
334
334
334
334
334
334
335
335
336
336
336
336
336
335
334
333
332
331
330
329
327
325
323
321
319
316
314
312
310
308
308
309
311
313
316
320
323
326
329
332
335
337
338
340
341
341
341
341
341
341
340
339
338
337
336
335
334
334
334
333
333
333
333
333
332
332
331
331
331
331
331
331
330
331
331
330
330
330
331
330
330
330
331
331
330
330
331
330
330
331
332
332
331
331
331
331
331
331
331
331
331
331
332
332
332
332
332
332
332
333
334
337
338
339
338
336
333
329
327
326
326
325
325
325
324
322
322
323
324
325
326
328
330
332
333
334
334
334
333
333
335
339
346
358
377
399
418
423
404
364
312
259
222
207
210
228
255
286
314
337
352
361
364
362
359
355
350
346
343
341
339
337
337
336
336
336
335
336
335
334
334
334
335
334
334
334
334
334
334
335
335
335
335
335
336
335
335
335
335
335
334
334
333
332
330
327
325
323
320
318
316
314
312
310
309
309
309
310
313
317
320
323
327
330
333
335
336
338
339
340
340
341
341
341
340
340
339
337
336
336
335
335
334
334
334
333
333
333
333
332
331
331
331
331
331
331
331
331
331
331
331
331
330
330
331
331
330
330
330
331
331
331
331
331
331
331
331
332
332
332
332
332
331
330
330
331
332
332
332
332
333
332
332
333
335
336
338
338
338
335
332
329
327
325
325
325
326
325
324
323
323
323
324
325
326
328
330
331
332
333
333
333
333
334
335
339
346
358
376
397
417
423
405
365
313
261
223
206
210
228
255
286
314
339
355
364
366
365
360
355
349
345
342
340
338
337
337
336
336
335
335
335
334
334
334
334
334
334
334
335
335
335
335
336
335
335
336
336
336
335
335
335
335
334
333
333
332
330
329
327
326
323
321
318
316
313
310
308
307
307
308
310
313
316
319
323
327
330
333
336
338
340
340
341
341
341
341
341
341
340
339
338
337
336
335
334
334
334
333
332
333
333
333
332
332
332
332
331
331
331
331
330
330
331
331
331
331
331
331
330
330
330
331
331
331
331
331
331
331
331
331
331
331
331
332
332
332
333
333
333
333
332
333
334
335
337
339
338
336
333
330
328
326
325
325
326
325
324
323
323
324
324
325
327
328
329
331
332
333
334
334
334
334
335
338
343
352
365
385
406
419
412
381
334
282
237
211
208
221
246
276
306
333
351
362
366
366
363
358
352
348
344
341
338
337
336
335
334
334
335
334
334
334
335
335
334
334
335
335
334
334
335
335
335
334
335
335
335
335
336
336
335
335
334
334
332
331
329
327
326
323
321
319
316
313
311
309
308
308
308
310
313
315
319
322
326
329
332
335
337
339
340
341
342
341
340
340
340
339
338
337
337
336
336
335
335
334
333
333
333
333
332
332
332
332
331
331
331
331
331
331
331
331
331
330
330
331
330
330
330
331
331
331
331
330
330
330
330
330
331
331
331
332
332
332
331
332
331
331
331
332
333
333
332
332
332
333
334
336
338
339
337
335
332
329
326
325
325
326
325
324
323
323
322
323
325
326
328
329
331
332
333
333
333
333
333
333
335
340
347
359
378
400
418
421
401
361
310
258
222
207
211
230
257
287
316
338
353
361
364
362
358
354
350
346
343
340
339
338
337
336
336
336
336
335
335
335
334
334
334
334
334
334
334
334
335
335
335
335
336
335
335
336
336
335
335
335
335
333
332
330
328
326
323
321
319
317
314
312
311
310
308
308
309
311
313
317
321
325
328
331
334
336
337
339
341
341
341
341
341
340
339
338
338
338
337
336
336
335
335
334
333
333
333
332
332
332
332
331
331
331
331
331
331
330
331
330
330
330
330
330
330
331
331
331
331
331
331
331
331
330
331
331
331
330
331
331
331
331
331
332
332
331
331
332
331
331
330
331
331
331
331
332
332
332
333
333
334
336
337
339
339
337
334
332
329
326
325
325
326
326
325
324
323
322
323
324
325
327
328
330
332
333
333
333
333
333
333
335
339
346
358
376
398
418
424
407
368
316
264
225
207
209
226
252
282
311
335
351
360
364
363
359
354
350
346
343
340
339
338
337
336
336
336
336
335
335
335
335
334
334
335
335
334
334
335
335
335
334
335
336
336
336
336
336
336
335
335
334
333
331
330
329
327
325
323
321
319
316
313
311
310
308
308
309
310
313
316
319
323
326
329
333
336
337
338
340
341
341
340
341
341
340
339
338
338
337
336
335
335
335
334
333
333
333
333
332
332
333
332
332
332
332
331
330
330
330
330
330
330
330
330
330
330
331
331
330
331
331
332
331
331
332
331
331
330
330
330
330
330
330
331
331
331
332
332
332
331
331
332
331
331
331
331
331
331
331
331
332
331
331
332
332
332
332
333
334
335
337
338
339
338
335
333
331
328
326
325
325
326
325
324
323
323
323
324
325
327
328
329
331
332
333
333
333
333
333
333
337
342
352
367
389
410
423
416
385
337
283
237
211
206
218
241
271
301
328
347
359
365
365
362
358
353
349
344
340
338
337
336
335
335
336
336
335
335
335
335
334
334
334
335
334
334
334
335
335
335
335
336
335
335
335
336
336
335
335
335
334
332
331
330
328
326
324
323
320
317
314
312
310
309
308
308
310
312
314
317
321
325
327
331
334
336
338
339
340
340
340
340
341
340
340
339
339
338
337
336
336
336
335
334
334
333
332
332
331
331
331
331
330
331
331
331
331
331
331
331
331
331
331
330
330
331
331
330
330
330
331
330
330
330
331
331
331
331
332
332
331
331
332
332
331
331
331
331
331
331
331
331
331
331
331
332
331
331
331
332
332
332
332
332
332
333
334
336
338
338
337
336
333
330
328
327
326
326
326
325
324
323
323
323
324
325
326
328
330
331
331
332
333
333
333
333
334
337
341
350
365
386
406
419
413
383
336
283
238
212
207
220
244
275
305
331
350
362
366
366
363
358
353
347
343
341
339
337
336
336
335
335
334
334
335
334
334
334
335
335
334
334
334
334
334
334
335
335
335
335
335
336
336
336
336
336
335
334
333
331
330
328
327
325
323
320
317
315
312
310
308
308
308
308
310
314
317
321
325
329
332
334
336
338
339
340
340
341
341
340
340
340
340
339
337
337
337
336
335
334
335
334
333
333
332
332
331
331
332
332
331
331
331
331
331
331
331
331
331
330
330
330
330
329
330
330
330
330
330
331
332
331
331
331
331
331
331
331
331
331
332
332
332
332
331
331
331
331
331
331
332
332
331
331
331
332
332
332
333
332
332
332
334
336
337
338
337
335
332
330
328
327
326
326
326
326
325
324
323
323
324
324
326
328
330
331
332
334
334
334
333
333
334
337
343
354
371
393
413
424
413
378
328
275
233
210
206
220
245
275
304
329
348
359
364
364
361
357
352
347
344
342
339
338
337
337
336
335
335
335
335
334
334
334
334
334
334
335
335
335
335
335
335
335
335
335
336
335
335
335
335
335
334
334
333
331
330
328
327
325
322
320
318
315
313
310
309
308
308
309
311
314
317
321
325
328
331
333
336
338
339
339
340
341
340
340
340
340
339
338
337
337
337
336
336
335
335
333
333
332
332
332
331
332
332
331
331
331
331
331
330
331
331
331
331
331
331
331
331
330
331
331
330
330
331
331
330
330
331
331
331
331
331
331
331
330
331
331
331
331
331
332
332
331
331
332
332
331
331
331
331
331
330
331
332
332
332
332
333
333
334
336
338
339
338
336
333
330
328
326
326
326
326
326
326
325
323
323
324
325
326
327
329
331
332
332
333
333
333
332
334
338
344
354
371
392
413
424
416
383
335
281
236
211
206
217
240
269
299
325
344
356
362
363
361
358
354
349
345
342
340
339
337
337
337
337
336
335
335
335
334
334
334
335
334
334
334
335
334
334
334
335
335
335
336
336
336
335
335
335
334
333
332
332
331
329
327
326
323
321
318
316
314
311
309
309
309
310
311
314
317
320
323
327
330
333
335
337
338
340
340
340
341
341
340
339
339
338
338
337
336
336
335
334
334
334
333
333
332
332
332
332
332
332
332
332
331
331
331
330
330
330
330
330
330
330
330
330
330
330
331
331
331
331
332
331
331
331
331
331
331
331
331
331
331
331
332
332
332
331
331
331
331
330
331
331
331
331
332
333
332
332
332
333
334
336
338
339
339
336
334
332
329
327
325
325
326
326
325
324
323
323
323
324
325
326
328
330
332
333
333
333
333
333
333
337
342
352
367
388
410
424
419
391
344
291
242
213
205
214
235
264
295
322
342
356
362
364
362
358
353
349
346
342
340
339
337
336
335
335
336
335
335
335
335
335
334
334
335
334
334
334
334
334
334
335
336
336
336
336
336
336
335
335
335
334
333
332
331
329
327
324
322
321
319
316
314
312
310
309
308
309
311
313
316
320
323
326
329
332
335
336
338
339
341
341
341
341
341
340
339
338
338
338
337
336
336
335
334
333
333
332
332
332
332
332
332
332
332
332
331
331
331
331
331
330
330
330
330
330
330
331
331
330
330
331
331
330
331
331
331
331
331
331
331
331
331
331
332
332
331
331
331
331
331
332
333
333
332
332
333
333
334
336
338
339
338
336
334
331
328
326
325
325
326
326
325
324
323
323
324
325
326
327
329
331
332
332
333
334
334
333
334
337
342
350
365
386
408
422
418
390
344
290
242
214
206
216
237
267
298
325
344
357
364
364
362
358
353
349
345
342
340
338
337
336
337
337
336
335
336
335
335
334
334
334
334
334
334
334
334
334
334
335
336
335
335
335
336
335
335
336
336
334
333
332
330
328
326
325
323
321
318
315
313
310
308
308
309
309
310
313
316
319
322
326
330
333
335
337
339
340
341
341
341
341
340
339
339
339
338
337
336
336
336
334
334
333
333
332
332
332
332
331
331
331
331
331
331
331
332
332
331
331
331
331
331
331
331
330
330
330
331
331
330
330
331
331
330
331
332
332
331
332
332
332
332
332
332
332
332
332
334
336
337
339
339
337
335
331
328
327
325
325
325
326
324
323
322
323
323
324
326
328
330
331
332
333
333
333
333
333
334
337
341
349
362
381
402
417
417
391
347
294
246
215
206
215
238
268
299
327
348
361
366
366
364
359
354
348
344
341
338
336
336
336
335
334
334
335
335
334
334
334
334
334
334
334
334
335
334
335
335
335
335
335
336
336
335
335
335
335
334
334
333
332
330
329
327
325
322
319
317
315
312
310
309
308
307
308
310
313
317
320
324
328
331
334
336
338
339
340
341
342
342
341
340
339
339
338
337
337
336
336
335
334
334
334
333
333
333
333
332
332
332
332
331
330
331
331
330
330
330
331
330
330
330
331
331
331
331
331
331
330
331
332
331
331
331
331
331
330
330
331
331
331
331
332
332
332
332
333
333
334
336
338
339
338
336
334
331
328
326
326
326
326
325
324
324
323
322
323
325
326
328
330
331
333
333
333
333
333
333
335
338
344
354
368
389
410
421
412
381
334
281
236
211
207
220
244
273
304
330
348
359
364
364
362
357
353
348
344
341
340
339
338
337
336
336
335
334
334
334
334
334
334
335
335
334
334
335
335
335
335
335
335
335
335
335
336
336
335
336
335
334
332
331
330
328
326
324
322
320
317
314
313
310
309
308
308
310
312
314
318
321
325
328
331
335
337
339
340
341
342
341
341
341
340
339
338
338
337
336
335
335
334
334
333
333
333
333
333
332
332
332
331
331
331
331
330
330
331
331
330
331
331
331
331
331
332
331
331
330
331
331
330
330
331
331
331
331
332
332
331
331
331
331
331
331
331
332
332
332
332
332
333
333
334
336
338
339
338
337
334
331
328
326
325
325
325
325
325
324
323
323
324
325
326
327
329
331
332
333
333
334
333
332
333
335
339
347
361
380
402
420
422
401
359
306
256
221
206
211
230
258
288
315
338
353
361
364
362
359
355
351
347
344
341
339
338
337
337
336
335
335
335
335
334
334
335
334
334
334
334
334
334
334
335
335
335
335
336
336
336
336
336
335
334
333
332
332
330
328
327
326
324
321
319
317
314
311
309
309
308
309
310
313
316
319
323
327
330
333
335
337
339
340
340
341
341
341
340
340
339
339
338
337
337
336
335
334
335
334
333
332
332
332
332
332
332
332
332
332
332
332
331
331
330
331
330
330
330
330
330
330
330
331
331
331
331
331
331
331
331
331
331
331
331
331
332
332
332
332
332
332
331
331
331
331
331
331
331
332
331
331
332
332
332
331
332
332
333
335
337
339
338
337
334
332
329
327
326
326
326
327
326
325
324
322
322
324
325
326
328
329
331
332
332
333
334
333
333
334
338
343
354
371
393
414
424
414
380
331
277
233
210
207
219
244
274
303
328
346
358
363
363
360
357
353
348
344
342
340
339
337
336
336
335
335
335
335
335
335
335
335
335
334
334
335
335
335
335
335
335
335
334
335
335
335
335
336
336
335
334
333
332
330
328
327
325
323
320
317
315
313
311
310
310
310
310
311
314
317
320
324
327
331
333
335
337
339
340
340
341
341
340
340
339
339
338
337
336
336
336
335
334
334
333
332
332
332
332
332
332
332
332
331
331
331
331
331
331
331
331
331
330
330
331
331
331
331
331
331
330
330
330
331
331
330
330
331
331
330
331
332
332
332
332
332
332
331
331
331
331
331
331
332
332
331
331
331
332
331
332
332
332
332
332
333
335
337
338
338
338
335
332
329
328
326
325
325
326
326
324
323
323
323
324
325
327
329
330
331
332
333
333
333
333
333
333
336
342
352
367
388
409
423
418
388
341
287
240
213
205
216
239
268
298
324
344
357
363
364
362
358
353
349
345
342
339
338
337
337
336
335
335
335
335
335
335
335
335
335
335
335
335
334
334
335
335
334
334
335
335
335
336
336
336
335
335
334
333
332
330
329
327
325
322
321
319
316
313
311
310
309
308
310
312
314
316
319
323
326
329
332
335
337
339
339
340
341
340
340
340
340
339
338
338
337
336
335
335
335
334
334
334
333
333
332
332
332
332
332
331
331
331
331
331
331
331
331
330
330
331
330
330
330
330
330
330
330
331
331
331
331
332
332
331
331
331
331
330
330
331
332
332
331
331
332
331
331
331
332
331
331
331
331
331
331
331
331
332
331
332
332
332
331
332
333
334
335
337
338
339
337
334
332
329
327
325
325
326
327
326
325
324
323
322
323
325
326
328
330
331
332
332
333
334
334
333
334
337
343
353
369
391
412
423
412
377
328
274
231
209
208
222
247
277
307
332
350
361
366
366
362
357
352
348
343
340
339
338
336
336
335
335
335
334
335
335
334
334
334
334
334
334
334
334
335
335
335
335
336
336
336
336
336
336
335
335
335
334
333
332
331
329
327
325
323
320
317
314
312
309
307
307
307
309
311
313
316
320
324
327
331
334
336
338
339
341
341
340
340
341
340
339
339
339
338
337
337
336
335
334
333
333
333
333
332
332
332
332
332
332
332
332
332
331
331
331
331
330
330
330
330
330
330
330
330
330
331
330
330
330
331
331
332
332
332
333
332
332
331
331
331
330
330
331
331
331
331
332
332
332
332
333
333
334
336
338
339
338
337
335
332
328
326
325
325
326
326
325
324
323
323
324
325
327
328
330
331
332
332
332
333
333
333
333
335
339
345
355
373
394
413
418
400
362
311
261
224
209
213
232
260
291
319
341
357
365
368
365
361
356
351
346
342
339
338
336
335
335
335
334
334
334
335
334
334
333
333
333
333
333
334
335
335
336
336
336
336
336
336
336
336
336
335
335
334
333
333
332
330
328
326
324
321
318
315
312
310
308
307
307
308
309
312
315
319
322
326
330
333
335
337
339
340
341
341
341
342
341
340
339
339
338
336
336
336
336
335
335
334
334
333
333
332
333
332
332
332
332
332
331
331
331
330
330
330
331
331
330
330
331
331
330
330
330
330
330
330
331
331
331
331
332
332
332
331
331
331
331
331
331
332
332
332
332
333
332
332
332
332
333
335
336
338
339
337
335
332
330
327
326
326
326
326
326
324
324
323
323
324
325
327
328
329
331
332
333
333
334
333
333
334
338
344
354
370
392
413
423
411
378
330
277
233
210
207
221
245
276
305
330
348
359
364
364
361
356
352
348
344
341
339
338
337
336
336
336
335
335
335
335
335
334
334
334
334
334
334
335
335
335
335
335
336
336
336
336
336
336
335
335
335
334
332
331
330
328
326
324
323
320
317
315
313
310
308
307
308
309
311
314
317
321
324
328
332
335
337
338
340
341
341
340
340
340
339
338
338
337
337
336
336
336
336
335
334
334
334
333
333
333
333
332
331
332
332
331
331
331
331
331
330
330
331
330
330
330
330
330
330
330
331
332
331
331
332
332
331
331
331
332
331
331
331
331
331
330
330
331
331
331
331
332
332
332
332
333
333
332
333
334
336
337
338
339
337
334
331
329
327
325
325
325
326
326
325
324
323
323
324
325
327
328
330
331
333
333
333
333
333
333
334
337
344
355
371
392
413
425
415
382
333
280
235
209
205
217
241
271
301
327
346
357
362
363
361
357
353
348
345
342
340
339
338
337
336
336
336
336
335
335
335
335
334
334
334
334
334
334
335
335
335
335
335
336
336
336
336
336
336
335
335
334
332
331
330
329
327
324
322
320
317
314
312
310
309
308
308
309
311
313
313
312
313
314
318
324
328
332
335
335
339
344
354
361
367
369
366
354
341
330
330
334
338
336
337
337
336
334
331
329
328
325
315
307
310
317
322
327
334
344
352
348
342
337
330
328
331
334
335
328
317
312
316
314
308
309
322
342
357
362
355
343
330
330
329
328
327
331
335
338
346
344
344
344
337
325
317
306
302
305
312
319
331
346
353
367
375
368
350
327
314
313
314
313
320
331
333
327
313
301
299
301
304
312
318
317
327
344
363
375
375
367
352
341
339
352
374
395
409
404
382
350
307
260
224
207
212
235
263
294
321
339
348
354
363
365
362
359
354
353
346
335
328
324
322
324
332
339
348
357
363
362
347
328
319
315
320
322
325
332
340
338
332
333
337
344
350
346
337
332
328
326
329
341
348
344
333
323
320
320
319
315
310
311
312
308
305
303
306
308
312
318
319
318
321
326
330
332
331
334
342
351
356
355
350
338
329
325
326
327
331
334
337
337
334
331
336
340
344
347
344
342
340
336
331
332
339
340
336
330
326
322
322
324
320
316
318
326
333
337
340
344
342
338
335
332
332
328
322
320
325
331
340
345
348
341
335
331
328
326
330
334
332
327
323
318
321
324
325
324
325
327
328
328
329
325
323
326
329
334
338
341
341
331
325
323
329
344
361
374
384
402
